sample_index,timestamp_seconds,raw_voltage,filtered_voltage,lead_off
0,2.547,2.0540,0.4067,0
1,3.000,1.8100,0.6922,0
2,3.116,1.8220,0.9502,0
3,3.156,1.4400,1.0428,0
4,3.189,1.3980,1.0960,0
5,3.236,0.1940,0.9263,0
6,3.697,1.8920,1.1101,0
7,3.845,1.6980,1.1857,0
8,4.250,1.8560,1.3379,0
9,4.277,1.8500,1.4411,0
10,4.350,1.6740,1.4387,0
11,4.399,1.7280,1.4829,0
12,4.426,1.8140,1.5482,0
13,4.495,1.9540,1.5821,0
14,4.522,1.3620,1.5013,0
15,4.552,1.4480,1.4813,0
16,4.581,1.7900,1.4902,0
17,4.608,1.7300,1.4826,0
18,4.636,1.4140,1.4533,0
19,4.664,1.7780,1.4711,0
20,4.692,1.7240,1.4462,0
21,4.719,1.4780,1.4218,0
22,4.743,1.7560,1.4475,0
23,4.771,1.4440,1.3620,0
24,4.798,0.5920,1.1569,0
25,4.828,1.8020,1.2378,0
26,4.857,1.7740,1.2504,0
27,4.885,1.7480,1.2960,0
28,4.911,2.2860,1.4491,0
29,4.940,1.7180,1.4112,0
30,4.968,1.8980,1.4348,0
31,4.995,2.4360,1.5746,0
32,5.024,1.9620,1.5660,0
33,5.054,1.5340,1.4762,0
34,5.081,1.9000,1.4801,0
35,5.111,2.0100,1.4884,0
36,5.139,1.3840,1.3787,0
37,5.167,1.6060,1.3374,0
38,5.194,1.8600,1.3293,0
39,5.222,1.4280,1.2502,0
40,5.250,1.7040,1.2536,0
41,5.277,1.9620,1.2761,0
42,5.305,1.3820,1.1877,0
43,5.333,1.7620,1.2114,0
44,5.359,1.7660,1.1973,0
45,5.389,1.4640,1.1309,0
46,5.417,1.7000,1.1451,0
47,5.445,1.8100,1.1521,0
48,5.473,1.5220,1.0973,0
49,5.500,1.7940,1.1279,0
50,5.526,1.8080,1.1366,0
51,5.554,1.5260,1.0799,0
52,5.582,1.0580,0.9565,0
53,5.609,1.1500,0.8621,0
54,5.637,1.3480,0.8092,0
55,5.665,1.9880,0.9163,0
56,5.694,2.0280,1.0150,0
57,5.720,1.5960,0.9921,0
58,5.748,2.0000,1.0510,0
59,5.775,2.0540,1.1131,0
60,5.803,1.7520,1.1052,0
61,5.831,2.1300,1.1617,0
62,5.858,1.6440,1.1057,0
63,5.886,1.4040,1.0262,0
64,5.913,1.8740,1.0368,0
65,5.943,1.8780,1.0393,0
66,5.970,1.3600,0.9641,0
67,5.997,1.9220,0.9989,0
68,6.027,1.7540,0.9686,0
69,6.057,1.4400,0.9171,0
70,6.086,1.3420,0.8488,0
71,6.114,1.9160,0.8707,0
72,6.142,1.6360,0.8592,0
73,6.168,1.4160,0.8301,0
74,6.195,1.9020,0.8543,0
75,6.226,1.5380,0.8035,0
76,6.253,1.2840,0.7589,0
77,6.281,1.7820,0.7808,0
78,6.309,1.6320,0.7455,0
79,6.336,1.3800,0.7234,0
80,6.364,0.9780,0.6061,0
81,6.391,0.8620,0.4410,0
82,6.418,1.3700,0.4467,0
83,6.446,1.9700,0.5917,0
84,6.473,1.6120,0.6016,0
85,6.508,1.7840,0.6505,0
86,6.535,1.6800,0.6863,0
87,6.562,2.2760,0.8155,0
88,6.590,1.7460,0.8050,0
89,6.617,1.7120,0.8146,0
90,6.644,1.8540,0.8284,0
91,6.671,1.3640,0.7291,0
92,6.698,1.8000,0.7602,0
93,6.724,1.5840,0.7295,0
94,6.752,1.4680,0.6720,0
95,6.781,1.8360,0.7081,0
96,6.808,1.4980,0.6704,0
97,6.834,1.5180,0.6378,0
98,6.861,1.7480,0.6512,0
99,6.888,1.3900,0.5992,0
100,6.915,1.7440,0.6281,0
101,6.942,1.6780,0.6225,0
102,6.969,1.4460,0.5846,0
103,6.997,1.9280,0.6509,0
104,7.027,1.7680,0.6553,0
105,7.064,1.8500,0.6891,0
106,7.091,1.5760,0.6622,0
107,7.118,1.5160,0.6126,0
108,7.146,1.3900,0.5486,0
109,7.174,0.3820,0.3081,0
110,7.200,1.3820,0.2987,0
111,7.226,1.9280,0.3852,0
112,7.253,1.5660,0.4265,0
113,7.281,1.9820,0.5348,0
114,7.308,1.8500,0.5515,0
115,7.340,1.7860,0.5882,0
116,7.367,1.9320,0.6579,0
117,7.393,2.1140,0.7063,0
118,7.421,1.4260,0.6237,0
119,7.448,1.6880,0.6358,0
120,7.475,1.6320,0.5906,0
121,7.502,1.4900,0.5308,0
122,7.530,1.8380,0.5845,0
123,7.556,1.4420,0.5226,0
124,7.584,1.5980,0.4923,0
125,7.613,1.9340,0.5561,0
126,7.641,1.5860,0.5387,0
127,7.668,1.6320,0.5159,0
128,7.694,1.9280,0.5572,0
129,7.721,1.3740,0.4961,0
130,7.748,1.7980,0.5214,0
131,7.775,1.7520,0.5133,0
132,7.803,1.3200,0.4471,0
133,7.830,1.9260,0.5108,0
134,7.856,1.4920,0.4472,0
135,7.886,1.3960,0.4046,0
136,7.913,1.9120,0.4715,0
137,7.941,1.3460,0.3882,0
138,7.968,0.1180,0.0991,0
139,7.996,1.5820,0.1501,0
140,8.026,1.8480,0.2151,0
141,8.054,1.5660,0.2653,0
142,8.082,1.9200,0.3708,0
143,8.110,2.0520,0.4291,0
144,8.137,1.6600,0.4375,0
145,8.168,1.8400,0.5010,0
146,8.195,2.0880,0.5431,0
147,8.223,1.5220,0.4815,0
148,8.250,1.6100,0.4906,0
149,8.278,1.9580,0.5146,0
150,8.306,1.4580,0.4301,0
151,8.333,1.6940,0.4608,0
152,8.362,1.7900,0.4678,0
153,8.388,1.4340,0.3811,0
154,8.415,1.8080,0.4296,0
155,8.445,2.0060,0.4948,0
156,8.473,1.4980,0.4204,0
157,8.500,1.6900,0.4242,0
158,8.526,1.7300,0.4327,0
159,8.554,1.3960,0.3543,0
160,8.582,1.7640,0.3752,0
161,8.609,1.8480,0.4134,0
162,8.637,1.3100,0.3308,0
163,8.664,1.9680,0.3913,0
164,8.691,1.5800,0.3624,0
165,8.721,1.4100,0.3183,0
166,8.749,1.8240,0.3478,0
167,8.777,0.5060,0.1068,0
168,8.805,1.0180,0.0339,0
169,8.862,2.0600,0.1526,0
170,8.905,1.5980,0.1734,0
171,8.933,1.9000,0.2826,0
172,8.960,2.1100,0.3668,0
173,8.989,1.8100,0.3758,0
174,9.017,2.0220,0.4641,0
175,9.054,1.4420,0.3880,0
176,9.082,1.8040,0.3810,0
177,9.111,1.7820,0.3989,0
178,9.138,1.4460,0.3518,0
179,9.167,1.6780,0.3279,0
180,9.195,2.0720,0.3945,0
181,9.223,1.5020,0.3645,0
182,9.250,1.6380,0.3455,0
183,9.278,2.0540,0.3867,0
184,9.307,1.5680,0.3617,0
185,9.338,1.4260,0.3179,0
186,9.365,1.8940,0.3267,0
187,9.392,1.7700,0.3327,0
188,9.420,1.4240,0.3062,0
189,9.448,1.8420,0.3186,0
190,9.476,1.6960,0.2892,0
191,9.504,1.4020,0.2640,0
192,9.532,1.8500,0.3029,0
193,9.561,1.8700,0.3001,0
194,9.588,1.3500,0.2511,0
195,9.617,0.1320,-0.0320,0
196,9.646,1.8280,0.0124,0
197,9.675,1.9300,0.0965,0
198,9.704,1.6400,0.1827,0
199,9.732,2.0180,0.2543,0
200,9.761,2.1500,0.3054,0
201,9.788,1.6680,0.3405,0
202,9.817,2.0720,0.4221,0
203,9.846,2.3460,0.4666,0
204,9.874,1.7780,0.4640,0
205,9.905,1.4900,0.4279,0
206,9.934,1.6520,0.3355,0
207,9.963,1.8760,0.3357,0
208,9.991,1.5860,0.3506,0
209,10.020,1.4600,0.2697,0
210,10.051,1.6160,0.2033,0
211,10.080,1.9220,0.2890,0
212,10.109,1.6920,0.2994,0
213,10.137,1.3800,0.1858,0
214,10.166,1.7940,0.2164,0
215,10.197,1.9340,0.2951,0
216,10.225,1.6520,0.2588,0
217,10.254,1.4200,0.1847,0
218,10.283,1.5800,0.1880,0
219,10.311,1.9080,0.2326,0
220,10.340,1.5160,0.1806,0
221,10.369,1.4540,0.1565,0
222,10.398,1.9320,0.2147,0
223,10.427,1.3500,0.1300,0
224,10.455,0.1740,-0.1403,0
225,10.485,1.3240,-0.1487,0
226,10.514,2.0540,-0.0400,0
227,10.544,1.9860,0.0968,0
228,10.574,1.6780,0.1466,0
229,10.604,1.6440,0.1164,0
230,10.633,1.9400,0.1791,0
231,10.662,2.3420,0.3491,0
232,10.690,1.6600,0.3066,0
233,10.720,1.3680,0.2053,0
234,10.749,1.6660,0.2115,0
235,10.781,1.8700,0.2445,0
236,10.811,1.7680,0.2388,0
237,10.841,1.6060,0.2223,0
238,10.871,1.3780,0.1587,0
239,10.901,1.5440,0.1207,0
240,10.930,1.8420,0.1623,0
241,10.960,1.8200,0.2062,0
242,10.988,1.3540,0.1330,0
243,11.017,1.6240,0.1198,0
244,11.050,1.6220,0.1201,0
245,11.081,1.8460,0.1706,0
246,11.111,1.8880,0.2060,0
247,11.142,1.5680,0.1767,0
248,11.172,1.4420,0.1346,0
249,11.201,1.5020,0.0964,0
250,11.231,1.6860,0.1042,0
251,11.260,0.4380,-0.1209,0
252,11.291,1.3280,-0.1378,0
253,11.320,1.6100,-0.1194,0
254,11.349,1.9800,0.0155,0
255,11.382,1.9760,0.1237,0
256,11.412,2.2300,0.2230,0
257,11.443,1.9860,0.2738,0
258,11.473,1.7560,0.2920,0
259,11.503,1.5260,0.2211,0
260,11.534,1.7000,0.1945,0
261,11.564,1.9320,0.2535,0
262,11.594,1.8160,0.2653,0
263,11.625,1.5320,0.1972,0
264,11.654,1.4060,0.1365,0
265,11.687,1.3740,0.0833,0
266,11.717,1.6220,0.0699,0
267,11.748,1.8400,0.1136,0
268,11.778,1.9420,0.1860,0
269,11.808,1.5400,0.1475,0
270,11.838,1.3620,0.0743,0
271,11.869,1.4440,0.0420,0
272,11.900,1.6440,0.0539,0
273,11.931,1.8240,0.0941,0
274,11.962,1.9760,0.1656,0
275,11.995,1.9640,0.2224,0
276,12.028,2.0060,0.2677,0
277,12.061,0.7360,0.0534,0
278,12.091,1.3420,0.0023,0
279,12.123,1.6380,-0.0012,0
280,12.153,1.6480,0.0253,0
281,12.184,1.8820,0.1019,0
282,12.215,2.1160,0.1801,0
283,12.246,2.2240,0.2774,0
284,12.277,1.9260,0.3175,0
285,12.309,1.9720,0.3318,0
286,12.340,1.4760,0.2336,0
287,12.371,1.3340,0.1547,0
288,12.402,1.5080,0.1095,0
289,12.433,1.7520,0.1052,0
290,12.464,1.8200,0.1449,0
291,12.495,1.8200,0.1785,0
292,12.526,1.6620,0.1465,0
293,12.557,1.4320,0.0879,0
294,12.587,1.3920,0.0460,0
295,12.620,1.4300,-0.0033,0
296,12.651,1.5780,-0.0110,0
297,12.682,1.7880,0.0461,0
298,12.714,1.9480,0.1126,0
299,12.746,1.7940,0.1261,0
300,12.777,1.8880,0.1716,0
301,12.808,1.5620,0.1383,0
302,12.840,1.4060,0.0684,0
303,12.871,1.2640,-0.0113,0
304,12.903,0.0180,-0.3160,0
305,12.937,1.2280,-0.3341,0
306,12.969,1.6340,-0.2786,0
307,13.001,1.8180,-0.1499,0
308,13.034,1.7980,-0.0606,0
309,13.066,2.0140,0.0186,0
310,13.098,2.1560,0.1386,0
311,13.130,2.2600,0.2729,0
312,13.162,2.0060,0.2944,0
313,13.195,1.8760,0.2884,0
314,13.227,1.8700,0.3050,0
315,13.263,1.9500,0.3142,0
316,13.294,1.6420,0.2507,0
317,13.326,1.6780,0.2294,0
318,13.358,1.5960,0.1853,0
319,13.390,1.3620,0.0898,0
320,13.422,1.4100,0.0382,0
321,13.455,1.4400,0.0027,0
322,13.488,1.4100,-0.0431,0
323,13.520,1.4420,-0.0653,0
324,13.553,1.4900,-0.0675,0
325,13.588,1.3420,-0.1078,0
326,13.620,1.4520,-0.1174,0
327,13.653,1.4340,-0.1222,0
328,13.686,1.4540,-0.1236,0
329,13.719,1.1920,-0.1811,0
330,13.752,0.6280,-0.3347,0
331,13.785,1.6920,-0.2512,0
332,13.818,1.8440,-0.1581,0
333,13.851,1.8620,-0.0513,0
334,13.884,1.8700,0.0242,0
335,13.920,1.7440,0.0393,0
336,13.953,1.8960,0.1020,0
337,13.986,1.6980,0.1163,0
338,14.020,1.4560,0.0602,0
339,14.055,1.3880,0.0045,0
340,14.088,1.4080,-0.0247,0
341,14.122,1.4240,-0.0543,0
342,14.158,1.5280,-0.0608,0
343,14.191,1.4960,-0.0602,0
344,14.224,1.4980,-0.0611,0
345,14.261,1.8220,-0.0078,0
346,14.294,1.7020,0.0204,0
347,14.327,1.6060,0.0327,0
348,14.360,1.6740,0.0389,0
349,14.393,1.5300,0.0156,0
350,14.426,1.5240,0.0114,0
351,14.459,1.5940,0.0097,0
352,14.492,1.5420,-0.0085,0
353,14.525,1.5420,-0.0069,0
354,14.558,0.5180,-0.2129,0
355,14.594,1.6060,-0.1782,0
356,14.627,1.8400,-0.1026,0
357,14.660,1.8620,-0.0003,0
358,14.694,1.9260,0.0745,0
359,14.727,1.9460,0.1154,0
360,14.760,2.0280,0.1952,0
361,14.793,2.0000,0.2549,0
362,14.827,1.8340,0.2404,0
363,14.860,1.7000,0.2148,0
364,14.893,1.6640,0.2011,0
365,14.928,1.8920,0.2122,0
366,14.962,1.8960,0.2227,0
367,14.996,1.8620,0.2480,0
368,15.031,1.7880,0.2374,0
369,15.067,1.7580,0.2088,0
370,15.102,1.5220,0.1594,0
371,15.137,1.3660,0.0876,0
372,15.172,1.3100,-0.0037,0
373,15.205,1.2700,-0.0722,0
374,15.240,1.3020,-0.1074,0
375,15.276,1.6460,-0.0854,0
376,15.310,1.6640,-0.0621,0
377,15.344,1.6560,-0.0229,0
378,15.379,0.5440,-0.2267,0
379,15.413,1.8000,-0.1573,0
380,15.448,2.0080,-0.0506,0
381,15.483,1.9480,0.0582,0
382,15.518,1.6760,0.0636,0
383,15.554,1.7260,0.0580,0
384,15.588,1.7860,0.0961,0
385,15.626,1.8820,0.1461,0
386,15.661,1.8220,0.1469,0
387,15.696,1.9160,0.1821,0
388,15.730,1.9580,0.2318,0
389,15.764,1.7240,0.2037,0
390,15.798,1.8220,0.1994,0
391,15.832,1.8340,0.2133,0
392,15.865,1.9680,0.2443,0
393,15.899,1.8440,0.2346,0
394,15.933,1.8200,0.2345,0
395,15.970,1.4440,0.1578,0
396,16.005,1.4660,0.0877,0
397,16.040,1.3060,0.0027,0
398,16.077,1.7320,0.0298,0
399,16.111,1.7420,0.0447,0
400,16.146,2.0260,0.1167,0
401,16.182,0.6680,-0.0881,0
402,16.217,1.5760,-0.0812,0
403,16.253,1.7060,-0.0706,0
404,16.288,1.5660,-0.0495,0
405,16.327,1.8920,0.0286,0
406,16.362,2.1820,0.1127,0
407,16.397,2.3440,0.2427,0
408,16.431,2.1340,0.3234,0
409,16.466,1.9200,0.3060,0
410,16.500,1.7880,0.2648,0
411,16.535,1.6320,0.2307,0
412,16.570,1.5640,0.1694,0
413,16.604,1.4280,0.0750,0
414,16.639,1.3600,0.0138,0
415,16.677,1.8420,0.0585,0
416,16.713,2.0040,0.1042,0
417,16.748,1.9500,0.1546,0
418,16.785,1.6660,0.1455,0
419,16.821,1.4360,0.0627,0
420,16.857,1.2940,-0.0273,0
421,16.892,1.5620,-0.0262,0
422,16.928,1.8760,0.0211,0
423,16.963,1.9660,0.0752,0
424,16.999,0.4700,-0.1567,0
425,17.040,1.2400,-0.2067,0
426,17.076,1.7400,-0.1793,0
427,17.112,2.0000,-0.0516,0
428,17.148,2.0700,0.0722,0
429,17.184,1.9240,0.0927,0
430,17.222,1.7080,0.0871,0
431,17.258,1.5040,0.0693,0
432,17.294,1.6680,0.0471,0
433,17.330,1.8500,0.0616,0
434,17.366,1.9120,0.1284,0
435,17.405,1.3400,0.0497,0
436,17.441,1.3740,-0.0365,0
437,17.477,1.7720,-0.0026,0
438,17.514,2.0160,0.0896,0
439,17.551,1.6900,0.0760,0
440,17.588,1.4040,0.0087,0
441,17.625,1.4080,-0.0323,0
442,17.661,1.7280,-0.0138,0
443,17.697,1.9860,0.0509,0
444,17.734,1.8140,0.0876,0
445,17.773,1.3540,0.0188,0
446,17.809,0.8900,-0.1476,0
447,17.847,1.6240,-0.1278,0
448,17.884,1.9600,-0.0352,0
449,17.922,1.6540,-0.0175,0
450,17.958,1.7480,0.0078,0
451,17.995,2.1760,0.1071,0
452,18.034,2.2680,0.2180,0
453,18.072,1.5780,0.1742,0
454,18.111,1.7520,0.1552,0
455,18.151,1.8640,0.1556,0
456,18.188,1.4520,0.0985,0
457,18.225,1.5020,0.0540,0
458,18.263,1.9120,0.0754,0
459,18.301,1.8880,0.1134,0
460,18.338,1.4060,0.0624,0
461,18.375,1.5140,0.0079,0
462,18.413,1.9640,0.0528,0
463,18.450,1.8540,0.1038,0
464,18.487,1.4520,0.0514,0
465,18.527,1.7560,0.0393,0
466,18.565,1.8900,0.0800,0
467,18.603,1.5540,0.0660,0
468,18.641,0.2280,-0.2408,0
469,18.679,1.6720,-0.2110,0
470,18.716,2.0840,-0.0844,0
471,18.753,1.7860,-0.0126,0
472,18.790,1.5920,-0.0248,0
473,18.827,2.0400,0.0380,0
474,18.864,2.3640,0.1880,0
475,18.904,1.5220,0.1439,0
476,18.943,1.5480,0.0797,0
477,18.981,1.9580,0.1101,0
478,19.021,1.4500,0.0670,0
479,19.063,1.9780,0.1222,0
480,19.101,1.7740,0.0972,0
481,19.140,1.3780,0.0378,0
482,19.178,1.8420,0.0787,0
483,19.216,1.8600,0.0767,0
484,19.254,1.4180,0.0222,0
485,19.296,1.8380,0.0735,0
486,19.334,1.7980,0.0620,0
487,19.373,1.3160,-0.0191,0
488,19.411,1.7280,0.0205,0
489,19.449,0.9600,-0.1413,0
490,19.487,1.3360,-0.1874,0
491,19.525,1.5420,-0.1626,0
492,19.563,2.1220,-0.0377,0
493,19.601,2.0260,0.0374,0
494,19.638,1.6440,0.0437,0
495,19.680,2.1720,0.1401,0
496,19.720,1.5780,0.0818,0
497,19.759,1.4700,0.0422,0
498,19.798,2.0080,0.1037,0
499,19.836,1.5620,0.0477,0
500,19.874,1.4020,0.0010,0
501,19.913,1.8240,0.0353,0
502,19.951,1.8100,0.0398,0
503,19.989,1.3480,-0.0174,0
504,20.030,1.8420,0.0318,0
505,20.074,1.2980,-0.0686,0
506,20.115,1.9120,0.0012,0
507,20.154,1.4700,-0.0254,0
508,20.193,1.5360,-0.0525,0
509,20.232,1.9260,0.0015,0
510,20.270,0.4740,-0.2212,0
511,20.310,1.3500,-0.2363,0
512,20.349,2.0580,-0.1428,0
513,20.387,1.6320,-0.0995,0
514,20.425,1.6480,-0.0503,0
515,20.469,1.9200,-0.0204,0
516,20.509,1.7280,-0.0062,0
517,20.547,1.9540,0.0941,0
518,20.586,1.5880,0.0468,0
519,20.625,1.4560,-0.0229,0
520,20.665,1.9180,0.0578,0
521,20.704,1.4900,0.0165,0
522,20.743,1.6020,-0.0159,0
523,20.783,1.9740,0.0558,0
524,20.822,1.3320,-0.0044,0
525,20.866,2.0240,0.0608,0
526,20.905,1.4180,-0.0109,0
527,20.945,1.8140,0.0441,0
528,20.984,1.7940,0.0577,0
529,21.026,1.4900,0.0008,0
530,21.067,1.8940,0.0611,0
531,21.109,0.6240,-0.1543,0
532,21.149,1.7240,-0.1229,0
533,21.188,1.5780,-0.1245,0
534,21.228,1.9020,-0.0278,0
535,21.271,1.6460,-0.0244,0
536,21.312,2.0560,0.0471,0
537,21.353,1.9100,0.1000,0
538,21.393,1.6100,0.0857,0
539,21.434,1.9040,0.1030,0
540,21.474,1.4480,0.0364,0
541,21.515,2.0120,0.1186,0
542,21.554,1.4920,0.0523,0
543,21.594,1.7720,0.0583,0
544,21.635,1.7860,0.0810,0
545,21.678,1.8260,0.1004,0
546,21.720,1.6600,0.0731,0
547,21.760,1.6800,0.0664,0
548,21.800,1.9060,0.1048,0
549,21.840,1.3440,0.0160,0
550,21.880,1.8940,0.0608,0
551,21.919,1.6100,0.0357,0
552,21.960,1.5340,0.0064,0
553,21.999,0.5160,-0.2238,0
554,22.041,1.3720,-0.2458,0
555,22.085,2.0120,-0.1399,0
556,22.127,1.8760,-0.0513,0
557,22.167,2.0680,0.0536,0
558,22.208,1.7380,0.0434,0
559,22.248,2.0560,0.1193,0
560,22.289,1.4620,0.0699,0
561,22.329,1.9100,0.0979,0
562,22.369,1.6720,0.0691,0
563,22.410,1.5160,0.0439,0
564,22.450,1.9340,0.0876,0
565,22.494,1.7460,0.0697,0
566,22.537,1.6880,0.0769,0
567,22.578,1.7240,0.0798,0
568,22.618,1.7960,0.0713,0
569,22.659,1.4500,0.0204,0
570,22.700,1.8640,0.0694,0
571,22.746,1.8580,0.0763,0
572,22.785,1.7940,0.0882,0
573,22.825,1.5400,0.0630,0
574,22.866,0.5700,-0.1787,0
575,22.912,1.7820,-0.1375,0
576,22.954,1.7020,-0.1006,0
577,22.996,2.0080,0.0077,0
578,23.039,1.7200,0.0081,0
579,23.081,2.2960,0.1267,0
580,23.124,1.5160,0.0870,0
581,23.166,2.0140,0.1441,0
582,23.207,1.2860,0.0197,0
583,23.248,1.9920,0.0898,0
584,23.289,1.3760,0.0192,0
585,23.335,1.9460,0.0622,0
586,23.377,1.5560,0.0223,0
587,23.418,1.8700,0.0720,0
588,23.460,1.5820,0.0343,0
589,23.502,1.7100,0.0284,0
590,23.544,1.5220,0.0003,0
591,23.586,1.7200,0.0117,0
592,23.628,1.6040,-0.0140,0
593,23.669,1.7320,0.0061,0
594,23.711,0.3240,-0.2565,0
595,23.757,1.3320,-0.2843,0
596,23.800,2.0280,-0.1775,0
597,23.843,1.6500,-0.1201,0
598,23.886,1.8480,-0.0432,0
599,23.928,1.9200,-0.0121,0
600,23.970,1.6180,-0.0098,0
601,24.013,1.7600,0.0375,0
602,24.058,1.4760,-0.0302,0
603,24.101,1.9160,0.0174,0
604,24.144,1.6660,0.0386,0
605,24.190,1.3380,-0.0347,0
606,24.234,1.9880,0.0140,0
607,24.277,1.6840,0.0256,0
608,24.322,1.6840,0.0458,0
609,24.366,1.9920,0.0803,0
610,24.410,1.4460,0.0162,0
611,24.454,1.4640,-0.0002,0
612,24.498,1.9500,0.0394,0
613,24.544,1.0560,-0.1053,0
614,24.591,1.1340,-0.1615,0
615,24.638,2.2300,-0.0315,0
616,24.682,2.4500,0.1099,0
617,24.726,2.0700,0.2106,0
618,24.770,2.4120,0.3266,0
619,24.814,2.4200,0.3744,0
620,24.857,1.5840,0.3072,0
621,24.900,1.5300,0.2423,0
622,24.944,1.0520,0.0243,0
623,24.988,1.1060,-0.0994,0
624,25.033,1.5580,-0.0746,0
625,25.080,1.8720,-0.0428,0
626,25.126,1.9800,0.0141,0
627,25.171,3.2140,0.3494,0
628,25.216,3.1740,0.5799,0
629,25.261,1.7360,0.4741,0
630,25.305,1.4880,0.3561,0
631,25.349,0.0000,-0.0691,0
632,25.394,0.0000,-0.4126,0
633,25.438,1.6660,-0.3457,0
634,25.483,2.8900,-0.0382,0
635,25.531,2.3200,0.1181,0
636,25.577,1.1680,0.0083,0
637,25.622,2.1080,0.0694,0
638,25.667,2.6460,0.2348,0
639,25.712,1.9300,0.2731,0
640,25.758,0.8180,0.0501,0
641,25.804,0.8100,-0.1744,0
642,25.849,1.2240,-0.2349,0
643,25.895,1.3940,-0.2251,0
644,25.940,1.1060,-0.3104,0
645,25.989,1.3040,-0.3364,0
646,26.037,1.3400,-0.3217,0
647,26.083,1.4000,-0.3111,0
648,26.129,1.2340,-0.3508,0
649,26.174,0.9240,-0.4212,0
650,26.219,0.7500,-0.5142,0
651,26.265,1.7660,-0.4101,0
652,26.310,1.6560,-0.3281,0
653,26.355,2.0460,-0.1563,0
654,26.401,2.5680,0.0481,0
655,26.449,2.3140,0.1649,0
656,26.495,1.7940,0.1914,0
657,26.541,1.4220,0.1036,0
658,26.587,1.5880,0.0412,0
659,26.633,1.7560,0.0651,0
660,26.679,1.6920,0.0750,0
661,26.724,1.5420,0.0174,0
662,26.770,1.7440,0.0271,0
663,26.816,2.1680,0.1401,0
664,26.861,1.6760,0.1119,0
665,26.910,1.5160,0.0553,0
666,26.957,1.4980,0.0157,0
667,27.002,0.9540,-0.1297,0
668,27.049,1.6680,-0.1112,0
669,27.097,1.9340,-0.0395,0
670,27.146,1.8920,0.0293,0
671,27.191,1.7060,0.0361,0
672,27.237,2.1240,0.1103,0
673,27.283,1.8160,0.1248,0
674,27.328,1.6420,0.1103,0
675,27.377,1.5560,0.0541,0
676,27.424,1.4180,-0.0134,0
677,27.470,1.6980,0.0082,0
678,27.516,1.8600,0.0410,0
679,27.561,1.5040,-0.0053,0
680,27.607,1.4240,-0.0411,0
681,27.653,1.6840,-0.0335,0
682,27.699,1.8440,-0.0016,0
683,27.745,1.5260,-0.0158,0
684,27.791,1.2600,-0.0870,0
685,27.845,1.3220,-0.1557,0
686,27.888,1.8280,-0.0931,0
687,27.934,2.1120,0.0298,0
688,27.980,1.9660,0.0849,0
689,28.028,2.0240,0.1369,0
690,28.078,1.6900,0.1229,0
691,28.125,1.3340,0.0363,0
692,28.172,1.6200,0.0083,0
693,28.218,1.7800,0.0264,0
694,28.264,1.8660,0.0735,0
695,28.314,1.7520,0.0747,0
696,28.360,1.4500,0.0102,0
697,28.407,1.4080,-0.0379,0
698,28.453,1.6720,-0.0315,0
699,28.499,1.8920,0.0125,0
700,28.546,1.6040,0.0065,0
701,28.592,1.4820,-0.0251,0
702,28.638,0.5680,-0.2505,0
703,28.685,2.0320,-0.1327,0
704,28.732,2.0820,-0.0239,0
705,28.782,2.1280,0.0915,0
706,28.829,2.0620,0.1543,0
707,28.875,1.5480,0.0933,0
708,28.921,1.5580,0.0613,0
709,28.968,1.8120,0.0756,0
710,29.015,1.7980,0.0788,0
711,29.064,1.7260,0.0843,0
712,29.112,1.6420,0.0656,0
713,29.160,1.4920,0.0071,0
714,29.207,1.5360,-0.0193,0
715,29.256,1.5080,-0.0424,0
716,29.303,1.7340,-0.0273,0
717,29.351,1.8540,0.0130,0
718,29.398,1.8880,0.0644,0
719,29.445,0.1460,-0.2490,0
720,29.492,1.6060,-0.2238,0
721,29.538,1.8120,-0.1696,0
722,29.585,2.1460,-0.0121,0
723,29.632,2.2020,0.1078,0
724,29.679,1.8860,0.1127,0
725,29.728,1.5280,0.0750,0
726,29.775,1.4640,0.0314,0
727,29.821,1.6320,-0.0034,0
728,29.868,1.9520,0.0528,0
729,29.915,1.8520,0.1007,0
730,29.962,1.6040,0.0629,0
731,30.008,1.4620,-0.0043,0
732,30.056,1.5500,-0.0165,0
733,30.103,1.7940,0.0142,0
734,30.150,1.8820,0.0425,0
735,30.199,1.9080,0.0903,0
736,30.247,1.4920,0.0476,0
737,30.294,1.1440,-0.0767,0
738,30.341,1.8000,-0.0445,0
739,30.388,1.9600,0.0292,0
740,30.435,2.2520,0.1487,0
741,30.481,2.0600,0.1931,0
742,30.527,2.7120,0.3654,0
743,30.574,1.8720,0.3409,0
744,30.621,0.8800,0.1207,0
745,30.671,0.9700,-0.0618,0
746,30.718,1.6160,-0.0784,0
747,30.765,2.0020,0.0139,0
748,30.812,1.8220,0.0494,0
749,30.859,1.9020,0.0746,0
750,30.907,2.2200,0.1671,0
751,30.953,2.4780,0.3057,0
752,31.000,2.2400,0.3581,0
753,31.048,1.4340,0.2354,0
754,31.096,0.0000,-0.1448,0
755,31.147,0.7900,-0.3108,0
756,31.194,0.9360,-0.4242,0
757,31.241,0.9180,-0.4743,0
758,31.288,2.2200,-0.2671,0
759,31.335,2.3640,-0.0977,0
760,31.382,1.9900,0.0133,0
761,31.430,1.2460,-0.0540,0
762,31.478,0.6320,-0.2816,0
763,31.525,0.4800,-0.4714,0
764,31.572,1.0480,-0.4852,0
765,31.622,1.6740,-0.4023,0
766,31.670,1.7740,-0.3038,0
767,31.717,1.1120,-0.3227,0
768,31.765,1.9500,-0.2039,0
769,31.812,2.6880,0.0179,0
770,31.860,1.7540,0.0700,0
771,31.907,2.5320,0.2546,0
772,31.956,2.9340,0.4175,0
773,32.004,2.9600,0.6144,0
774,32.052,2.1700,0.6397,0
775,32.103,2.6900,0.6838,0
776,32.157,2.3680,0.6628,0
777,32.205,3.1960,0.8814,0
778,32.252,3.2180,1.0051,0
779,32.300,2.8440,1.0081,0
780,32.348,2.7060,1.0374,0
781,32.394,3.1880,1.1298,0
782,32.442,1.8720,0.9039,0
783,32.488,0.8700,0.5691,0
784,32.535,0.2560,0.1565,0
785,32.585,0.0000,-0.2699,0
786,32.632,0.0000,-0.5696,0
787,32.680,0.0000,-0.7889,0
788,32.727,1.0420,-0.7985,0
789,32.774,2.3480,-0.5291,0
790,32.822,1.9460,-0.3365,0
791,32.868,1.0640,-0.3842,0
792,32.915,1.0580,-0.4723,0
793,32.962,1.2680,-0.4636,0
794,33.009,1.6440,-0.3563,0
795,33.060,1.4660,-0.3466,0
796,33.110,1.4720,-0.3295,0
797,33.157,1.5180,-0.2773,0
798,33.204,1.8860,-0.1858,0
799,33.251,1.7280,-0.1536,0
800,33.298,1.9860,-0.0440,0
801,33.348,1.4300,-0.0795,0
802,33.395,0.9420,-0.2248,0
803,33.442,1.2200,-0.2748,0
804,33.489,1.5200,-0.2491,0
805,33.539,2.1340,-0.1113,0
806,33.587,2.2840,0.0352,0
807,33.635,2.0140,0.1102,0
808,33.682,1.6820,0.0909,0
809,33.730,1.7680,0.0814,0
810,33.776,1.5700,0.0467,0
811,33.823,1.7380,0.0556,0
812,33.870,2.2380,0.1459,0
813,33.917,1.8560,0.1540,0
814,33.964,1.8460,0.1723,0
815,34.014,1.8180,0.1538,0
816,34.064,1.8480,0.1476,0
817,34.111,0.3740,-0.1271,0
818,34.158,1.8160,-0.0829,0
819,34.205,2.1120,-0.0149,0
820,34.251,2.2840,0.1395,0
821,34.298,2.3020,0.2561,0
822,34.345,1.7640,0.1901,0
823,34.392,1.3740,0.0955,0
824,34.438,1.5700,0.0720,0
825,34.488,1.6140,0.0163,0
826,34.536,1.8160,0.0315,0
827,34.584,1.8420,0.0805,0
828,34.631,1.7680,0.0724,0
829,34.679,1.3920,-0.0185,0
830,34.726,1.4800,-0.0420,0
831,34.773,1.5980,-0.0531,0
832,34.821,1.4940,-0.0987,0
833,34.868,1.6900,-0.0701,0
834,34.915,2.0520,0.0231,0
835,34.965,2.0880,0.0876,0
836,35.013,1.9780,0.1347,0
837,35.063,2.0380,0.1879,0
838,35.110,1.4280,0.0883,0
839,35.158,1.4240,0.0141,0
840,35.205,1.6980,0.0130,0
841,35.253,1.8660,0.0399,0
842,35.300,1.8840,0.0711,0
843,35.347,1.7280,0.0693,0
844,35.394,1.2980,-0.0265,0
845,35.444,1.5040,-0.0659,0
846,35.491,1.5340,-0.0873,0
847,35.538,1.0100,-0.2019,0
848,35.585,1.6800,-0.1690,0
849,35.633,2.0600,-0.0733,0
850,35.680,1.8560,-0.0104,0
851,35.728,1.7280,0.0093,0
852,35.774,1.8360,0.0198,0
853,35.822,1.5780,-0.0050,0
854,35.870,1.7180,0.0169,0
855,35.920,1.7180,0.0058,0
856,35.968,1.8380,0.0276,0
857,36.015,1.7700,0.0538,0
858,36.066,1.7440,0.0518,0
859,36.114,1.5380,-0.0022,0
860,36.161,1.5220,-0.0273,0
861,36.209,1.5180,-0.0539,0
862,36.255,0.4840,-0.2951,0
863,36.302,1.9600,-0.1853,0
864,36.349,2.0520,-0.0813,0
865,36.399,2.1080,0.0350,0
866,36.447,1.9860,0.0932,0
867,36.494,1.8080,0.0893,0
868,36.542,1.4300,0.0251,0
869,36.589,1.5680,0.0007,0
870,36.637,1.7880,0.0065,0
871,36.683,1.8380,0.0365,0
872,36.731,1.6720,0.0394,0
873,36.778,1.2980,-0.0536,0
874,36.825,1.4740,-0.0962,0
875,36.876,1.5080,-0.1078,0
876,36.924,1.6840,-0.0837,0
877,36.971,0.4220,-0.3254,0
878,37.019,2.0840,-0.1832,0
879,37.070,2.0900,-0.0756,0
880,37.118,2.1780,0.0598,0
881,37.166,2.2840,0.1752,0
882,37.214,1.8340,0.1576,0
883,37.261,1.4620,0.0919,0
884,37.309,1.4220,0.0254,0
885,37.359,1.4200,-0.0514,0
886,37.406,1.5520,-0.0672,0
887,37.454,1.7260,-0.0339,0
888,37.501,1.5920,-0.0540,0
889,37.549,1.7760,-0.0292,0
890,37.597,1.6080,-0.0287,0
891,37.644,1.3020,-0.0983,0
892,37.692,0.9720,-0.2308,0
893,37.740,1.8920,-0.1453,0
894,37.788,2.0580,-0.0387,0
895,37.838,2.1220,0.0668,0
896,37.885,2.3880,0.1964,0
897,37.933,1.9000,0.2012,0
898,37.980,1.5760,0.1489,0
899,38.030,1.5660,0.0897,0
900,38.080,1.6380,0.0520,0
901,38.128,1.4680,0.0055,0
902,38.175,1.5120,-0.0279,0
903,38.222,1.5300,-0.0662,0
904,38.270,1.8880,-0.0106,0
905,38.320,1.8700,0.0375,0
906,38.368,0.5500,-0.1969,0
907,38.416,1.8460,-0.1344,0
908,38.463,1.7880,-0.0984,0
909,38.510,1.7660,-0.0401,0
910,38.558,1.9680,0.0271,0
911,38.605,2.1460,0.0968,0
912,38.653,1.8240,0.1213,0
913,38.701,1.8480,0.1440,0
914,38.748,1.6560,0.0883,0
915,38.798,1.7180,0.0774,0
916,38.846,1.5320,0.0480,0
917,38.893,1.1940,-0.0708,0
918,38.941,1.5460,-0.0986,0
919,38.989,1.7320,-0.0602,0
920,39.038,1.7620,-0.0263,0
921,39.087,0.9000,-0.1859,0
922,39.136,2.1060,-0.0662,0
923,39.184,2.1560,0.0396,0
924,39.232,2.1400,0.1368,0
925,39.282,2.3200,0.2394,0
926,39.331,1.7200,0.1928,0
927,39.378,1.4220,0.1103,0
928,39.425,1.4720,0.0408,0
929,39.472,1.6640,0.0140,0
930,39.520,1.8480,0.0494,0
931,39.567,1.7640,0.0624,0
932,39.615,1.6440,0.0326,0
933,39.663,1.6100,0.0078,0
934,39.710,1.5420,-0.0164,0
935,39.760,0.0000,-0.3522,0
936,39.808,1.7400,-0.2851,0
937,39.855,1.9640,-0.1888,0
938,39.904,2.0680,-0.0446,0
939,39.952,2.3060,0.0959,0
940,39.999,2.0420,0.1280,0
941,40.048,1.6120,0.1056,0
942,40.097,1.4880,0.0574,0
943,40.145,1.4040,-0.0371,0
944,40.192,1.4200,-0.0832,0
945,40.243,1.3320,-0.1178,0
946,40.291,1.4600,-0.1541,0
947,40.339,1.7320,-0.1267,0
948,40.386,1.9560,-0.0263,0
949,40.434,0.2660,-0.2966,0
950,40.483,1.9680,-0.2009,0
951,40.531,1.9160,-0.1271,0
952,40.579,1.8160,-0.0352,0
953,40.627,1.9400,0.0224,0
954,40.676,1.7320,0.0011,0
955,40.727,1.4300,-0.0234,0
956,40.775,1.5100,-0.0402,0
957,40.823,1.6280,-0.0747,0
958,40.870,1.8140,-0.0246,0
959,40.919,1.5860,-0.0101,0
960,40.967,1.8060,-0.0010,0
961,41.014,1.6920,-0.0104,0
962,41.065,1.7660,0.0384,0
963,41.113,0.6400,-0.1776,0
964,41.162,1.7100,-0.1608,0
965,41.212,1.7740,-0.1069,0
966,41.261,1.8320,-0.0257,0
967,41.308,2.0480,0.0424,0
968,41.356,1.8140,0.0510,0
969,41.404,1.7880,0.0900,0
970,41.452,1.8560,0.1065,0
971,41.500,1.7440,0.0796,0
972,41.548,1.6100,0.0675,0
973,41.595,1.1720,-0.0372,0
974,41.642,1.5300,-0.0820,0
975,41.692,1.5000,-0.1028,0
976,41.740,1.5880,-0.0772,0
977,41.787,1.3060,-0.1455,0
978,41.834,2.0960,-0.0456,0
979,41.883,2.0640,0.0579,0
980,41.930,2.0120,0.1290,0
981,41.978,2.0260,0.1595,0
982,42.027,1.5460,0.1044,0
983,42.078,1.4020,0.0455,0
984,42.125,1.4360,-0.0271,0
985,42.176,1.4100,-0.0852,0
986,42.224,1.6020,-0.0658,0
987,42.271,1.5360,-0.0827,0
988,42.320,1.8660,-0.0406,0
989,42.367,1.8580,0.0154,0
990,42.415,0.7900,-0.1506,0
991,42.463,1.3120,-0.2075,0
992,42.511,1.7280,-0.1713,0
993,42.558,1.8580,-0.0767,0
994,42.606,2.1940,0.0516,0
995,42.656,2.1420,0.1194,0
996,42.705,1.7820,0.1334,0
997,42.753,1.8440,0.1558,0
998,42.801,1.7900,0.1276,0
999,42.848,1.5940,0.0882,0
1000,42.896,1.4600,0.0467,0
1001,42.944,1.3240,-0.0473,0
1002,42.992,1.5580,-0.0735,0
1003,43.042,1.5980,-0.0577,0
1004,43.090,0.0800,-0.3592,0
1005,43.142,1.7920,-0.2846,0
1006,43.190,1.9560,-0.1836,0
1007,43.238,2.1600,-0.0103,0
1008,43.286,2.3960,0.1393,0
1009,43.335,2.1200,0.1810,0
1010,43.384,1.7940,0.1959,0
1011,43.432,1.6980,0.1732,0
1012,43.480,1.5460,0.0846,0
1013,43.529,1.4600,0.0316,0
1014,43.578,1.1460,-0.0600,0
1015,43.629,1.5000,-0.1043,0
1016,43.678,1.4460,-0.1405,0
1017,43.726,1.1740,-0.1839,0
1018,43.775,1.3080,-0.2253,0
1019,43.823,1.9120,-0.1577,0
1020,43.872,1.9960,-0.0387,0
1021,43.921,2.2080,0.0990,0
1022,43.969,2.3100,0.1864,0
1023,44.017,1.8240,0.1869,0
1024,44.078,1.3820,0.1197,0
1025,44.129,1.4180,0.0241,0
1026,44.178,1.3840,-0.0560,0
1027,44.226,1.2480,-0.1028,0
1028,44.275,1.5660,-0.1058,0
1029,44.323,1.7200,-0.1003,0
1030,44.377,1.3360,-0.1250,0
1031,44.424,1.2560,-0.1664,0
1032,44.472,2.0320,-0.0917,0
1033,44.520,2.1520,0.0276,0
1034,44.569,2.2440,0.1766,0
1035,44.622,2.2220,0.2388,0
1036,44.671,1.8200,0.2068,0
1037,44.719,1.8360,0.2281,0
1038,44.766,1.7080,0.1869,0
1039,44.814,1.4940,0.0903,0
1040,44.862,1.4320,0.0392,0
1041,44.910,1.3000,-0.0351,0
1042,44.957,1.6420,-0.0578,0
1043,45.005,1.8180,-0.0158,0
1044,45.054,0.3960,-0.2426,0
1045,45.107,1.9000,-0.1644,0
1046,45.156,2.0060,-0.0951,0
1047,45.205,2.1100,0.0551,0
1048,45.253,2.3480,0.1925,0
1049,45.301,2.0320,0.1914,0
1050,45.349,1.6720,0.1748,0
1051,45.397,1.5020,0.1289,0
1052,45.447,1.4640,0.0256,0
1053,45.497,1.4900,-0.0210,0
1054,45.546,1.4140,-0.0378,0
1055,45.599,1.5940,-0.0631,0
1056,45.648,1.6300,-0.0800,0
1057,45.696,1.5840,-0.0531,0
1058,45.744,0.2980,-0.3112,0
1059,45.794,1.6680,-0.2823,0
1060,45.845,1.7460,-0.2147,0
1061,45.894,1.8060,-0.1040,0
1062,45.945,1.9820,-0.0316,0
1063,45.994,1.5320,-0.0720,0
1064,46.044,1.4620,-0.0665,0
1065,46.097,1.5180,-0.0822,0
1066,46.147,1.5140,-0.1242,0
1067,46.198,1.5800,-0.0979,0
1068,46.250,1.7400,-0.0459,0
1069,46.302,1.6420,-0.0631,0
1070,46.351,1.8660,-0.0061,0
1071,46.400,1.7840,0.0421,0
1072,46.448,1.5440,0.0017,0
1073,46.496,1.0080,-0.1388,0
1074,46.545,1.6620,-0.0988,0
1075,46.596,1.7880,-0.0589,0
1076,46.645,1.8380,-0.0133,0
1077,46.693,2.0020,0.0710,0
1078,46.742,1.6080,0.0488,0
1079,46.791,1.5680,0.0161,0
1080,46.841,1.6040,0.0034,0
1081,46.891,1.6180,-0.0017,0
1082,46.941,1.5860,-0.0180,0
1083,46.990,1.7000,-0.0068,0
1084,47.041,1.6060,-0.0119,0
1085,47.093,1.3680,-0.0655,0
1086,47.142,1.5860,-0.0707,0
1087,47.193,1.6200,-0.0654,0
1088,47.243,0.0000,-0.3735,0
1089,47.293,1.6980,-0.2970,0
1090,47.344,1.6880,-0.2565,0
1091,47.393,1.7660,-0.1500,0
1092,47.444,1.9220,-0.0516,0
1093,47.493,1.5860,-0.0803,0
1094,47.542,1.5240,-0.0752,0
1095,47.593,1.4340,-0.0827,0
1096,47.642,1.4760,-0.1217,0
1097,47.690,1.6560,-0.0993,0
1098,47.738,1.7940,-0.0249,0
1099,47.786,1.8400,0.0147,0
1100,47.834,1.6860,0.0090,0
1101,47.884,1.7000,0.0367,0
1102,47.933,1.7500,0.0542,0
1103,47.982,1.6460,0.0297,0
1104,48.035,1.3480,-0.0252,0
1105,48.086,2.0520,0.0690,0
1106,48.135,2.0420,0.1198,0
1107,48.184,2.1060,0.2003,0
1108,48.232,2.1460,0.2751,0
1109,48.281,1.6000,0.1999,0
1110,48.330,1.4520,0.1201,0
1111,48.378,1.4060,0.0538,0
1112,48.426,1.4740,-0.0007,0
1113,48.475,1.5980,-0.0164,0
1114,48.523,1.6840,0.0024,0
1115,48.575,1.5440,-0.0185,0
1116,48.625,1.5760,-0.0359,0
1117,48.673,1.4760,-0.0604,0
1118,48.722,1.7100,-0.0321,0
1119,48.772,1.7800,-0.0051,0
1120,48.822,1.7420,0.0180,0
1121,48.870,1.2180,-0.0633,0
1122,48.918,2.0740,0.0271,0
1123,48.967,2.0760,0.0992,0
1124,49.015,1.9840,0.1676,0
1125,49.068,2.3420,0.2743,0
1126,49.117,1.8560,0.2462,0
1127,49.165,1.5960,0.2014,0
1128,49.214,1.5520,0.1429,0
1129,49.263,1.5120,0.0646,0
1130,49.313,1.5080,0.0272,0
1131,49.361,1.4540,-0.0076,0
1132,49.410,1.4820,-0.0563,0
1133,49.458,1.6040,-0.0609,0
1134,49.506,1.7680,-0.0122,0
1135,49.557,1.6720,-0.0096,0
1136,49.605,1.6140,-0.0243,0
1137,49.654,1.8560,0.0283,0
1138,49.702,1.9000,0.0742,0
1139,49.750,1.0400,-0.0670,0
1140,49.797,1.2840,-0.1267,0
1141,49.845,1.7100,-0.1002,0
1142,49.893,1.7700,-0.0568,0
1143,49.941,2.0160,0.0387,0
1144,49.988,2.2820,0.1530,0
1145,50.038,1.8140,0.1540,0
1146,50.086,1.8060,0.1657,0
1147,50.134,1.7500,0.1439,0
1148,50.181,1.6140,0.0989,0
1149,50.228,1.4340,0.0436,0
1150,50.275,1.5340,0.0067,0
1151,50.322,1.7520,0.0107,0
1152,50.369,1.8760,0.0590,0
1153,50.416,1.8160,0.0871,0
1154,50.464,1.5720,0.0432,0
1155,50.514,1.5000,0.0002,0
1156,50.563,1.4400,-0.0385,0
1157,50.613,1.5040,-0.0679,0
