sample_index,timestamp_seconds,raw_voltage,filtered_voltage,lead_off
0,4.795,0.0000,0.0000,1
1,5.297,3.2340,0.3169,0
2,5.465,0.4840,0.3361,0
3,5.525,0.0000,0.0000,1
4,5.572,0.0000,0.0000,1
5,5.597,3.2300,0.6383,0
6,5.634,0.0000,0.5503,0
7,6.111,0.0000,0.0000,1
8,6.302,0.0000,0.4945,0
9,6.686,0.0000,0.0000,1
10,6.711,0.0000,0.0000,1
11,6.790,0.0000,0.0000,1
12,6.838,0.0000,0.0000,1
13,6.863,3.2300,0.7496,0
14,6.932,0.0000,0.6523,0
15,6.964,1.2220,0.7186,0
16,6.993,0.0000,0.0000,1
17,7.019,0.0000,0.6128,0
18,7.049,0.0000,0.5212,0
19,7.078,0.0000,0.4648,0
20,7.106,0.0000,0.3966,0
21,7.134,0.0000,0.3229,0
22,7.162,0.0000,0.2806,0
23,7.190,0.0000,0.2405,0
24,7.218,0.0000,0.1849,0
25,7.249,0.0000,0.1491,0
26,7.278,0.0000,0.1271,0
27,7.307,0.0000,0.0893,0
28,7.336,0.0000,0.0576,0
29,7.363,0.0020,0.0449,0
30,7.392,0.0000,0.0230,0
31,7.420,0.0000,-0.0040,0
32,7.449,0.0000,-0.0139,0
33,7.477,0.0000,-0.0239,0
34,7.506,0.0000,-0.0445,0
35,7.535,0.0000,-0.0544,0
36,7.564,0.0000,-0.0572,0
37,7.592,0.0000,-0.0703,0
38,7.621,0.0000,-0.0807,0
39,7.646,0.0000,-0.0806,0
40,7.674,0.0000,-0.0866,0
41,7.702,0.0000,-0.0963,0
42,7.731,0.0000,-0.0963,0
43,7.759,0.0000,-0.0969,0
44,7.792,0.0000,-0.1044,0
45,7.819,0.0000,-0.1058,0
46,7.848,0.0000,-0.1034,0
47,7.876,0.0000,-0.1075,0
48,7.905,0.0000,-0.1102,0
49,7.933,0.0000,-0.1070,0
50,7.961,0.0000,-0.1077,0
51,7.990,0.0000,-0.1108,0
52,8.021,0.0000,-0.1084,0
53,8.050,0.0000,-0.1065,0
54,8.079,0.0000,-0.1088,0
55,8.112,0.0000,-0.1077,0
56,8.143,0.0020,-0.1042,0
57,8.172,0.0000,-0.1050,0
58,8.199,0.0000,-0.1051,0
59,8.229,0.0000,-0.1018,0
60,8.258,0.0000,-0.1009,0
61,8.287,0.0000,-0.1015,0
62,8.315,0.0000,-0.0988,0
63,8.344,0.0000,-0.0966,0
64,8.374,0.0000,-0.0969,0
65,8.405,0.0000,-0.0953,0
66,8.435,0.0000,-0.0924,0
67,8.462,0.0000,-0.0920,0
68,8.492,0.0000,-0.0912,0
69,8.520,0.0000,-0.0884,0
70,8.549,0.0020,-0.0869,0
71,8.578,0.0000,-0.0865,0
72,8.607,0.0000,-0.0843,0
73,8.636,0.0000,-0.0823,0
74,8.663,0.0000,-0.0819,0
75,8.695,0.0000,-0.0803,0
76,8.724,0.0000,-0.0780,0
77,8.753,0.0000,-0.0772,0
78,8.781,0.0000,-0.0762,0
79,8.810,0.0000,-0.0740,0
80,8.840,0.0000,-0.0728,0
81,8.868,0.0000,-0.0721,0
82,8.895,0.0000,-0.0702,0
83,8.924,0.0000,-0.0686,0
84,8.953,0.0000,-0.0679,0
85,8.987,0.0020,-0.0664,0
86,9.019,0.0000,-0.0646,0
87,9.050,0.0000,-0.0637,0
88,9.079,0.0000,-0.0628,0
89,9.108,0.0000,-0.0611,0
90,9.137,0.0000,-0.0600,0
91,9.166,0.0000,-0.0592,0
92,9.194,0.0000,-0.0578,0
93,9.223,0.0000,-0.0565,0
94,9.251,0.0000,-0.0558,0
95,9.281,0.0000,-0.0546,0
96,9.311,0.0000,-0.0533,0
97,9.339,0.0000,-0.0524,0
98,9.368,0.0000,-0.0516,0
99,9.396,0.0000,-0.0503,0
100,9.424,0.0000,-0.0493,0
101,9.452,0.0000,-0.0486,0
102,9.481,0.0000,-0.0475,0
103,9.510,0.0000,-0.0464,0
104,9.539,0.0000,-0.0457,0
105,9.575,0.0000,-0.0448,0
106,9.605,0.0000,-0.0437,0
107,9.634,0.0000,-0.0430,0
108,9.662,0.0000,-0.0422,0
109,9.690,0.0000,-0.0412,0
110,9.718,0.0000,-0.0404,0
111,9.747,0.0000,-0.0398,0
112,9.776,0.0000,-0.0389,0
113,9.806,0.0000,-0.0380,0
114,9.833,0.0000,-0.0374,0
115,9.863,0.0000,-0.0366,0
116,9.892,0.0000,-0.0358,0
117,9.920,0.0000,-0.0352,0
118,9.949,0.0000,-0.0345,0
119,9.978,0.0000,-0.0337,0
120,10.007,0.0000,-0.0331,0
121,10.035,0.0000,-0.0325,0
122,10.063,0.0000,-0.0318,0
123,10.092,0.0000,-0.0311,0
124,10.120,0.0000,-0.0306,0
125,10.151,0.0000,-0.0299,0
126,10.180,0.0000,-0.0293,0
127,10.209,0.0000,-0.0287,0
128,10.238,0.0000,-0.0282,0
129,10.266,0.0000,-0.0276,0
130,10.294,0.0000,-0.0270,0
131,10.322,0.0000,-0.0265,0
132,10.351,0.0000,-0.0260,0
133,10.380,0.0000,-0.0254,0
134,10.409,0.0000,-0.0250,0
135,10.441,0.0000,-0.0245,0
136,10.470,1.4340,0.1166,0
137,10.500,1.6200,0.2633,0
138,10.528,1.6200,0.4039,0
139,10.557,1.6260,0.5187,0
140,10.585,1.5120,0.6024,0
141,10.617,0.0000,0.5378,0
142,10.642,0.0000,0.4725,0
143,10.672,0.0000,0.3939,0
144,10.700,1.4700,0.4861,0
145,10.731,2.8820,0.7167,0
146,10.761,3.2240,0.9470,0
147,10.790,3.2280,1.1556,0
148,10.819,3.2340,1.3416,0
149,10.848,3.2340,1.4946,0
150,10.876,3.1500,1.6198,0
151,10.905,1.6840,1.5899,0
152,10.934,1.6520,1.5467,0
153,10.960,1.6460,1.4911,0
154,10.989,1.6400,1.4557,0
155,11.023,3.2220,1.5789,0
156,11.049,3.2320,1.6732,0
157,11.078,3.2320,1.7733,0
158,11.108,3.2340,1.8574,0
159,11.137,3.2340,1.9101,0
160,11.165,3.2320,1.9638,0
161,11.193,3.2340,2.0168,0
162,11.222,3.2320,2.0437,0
163,11.251,3.2340,2.0642,0
164,11.280,3.2300,2.0915,0
165,11.311,0.1800,1.8038,0
166,11.340,0.0000,1.5123,0
167,11.369,0.0000,1.2400,0
168,11.398,0.0000,1.0177,0
169,11.426,0.0000,0.8186,0
170,11.455,0.0000,0.6235,0
171,11.484,0.0000,0.4616,0
172,11.513,0.0000,0.3273,0
173,11.542,0.0000,0.1924,0
174,11.572,0.0000,0.0738,0
175,11.604,0.0000,-0.0172,0
176,11.632,0.0000,-0.1062,0
177,11.661,0.0000,-0.1917,0
178,11.690,0.0000,-0.2546,0
179,11.719,0.0000,-0.3102,0
180,11.748,0.0000,-0.3692,0
181,11.778,0.0000,-0.4137,0
182,11.808,0.0000,-0.4465,0
183,11.838,0.0000,-0.4840,0
184,11.867,0.0000,-0.5157,0
185,11.897,0.0000,-0.5343,0
186,11.927,0.0000,-0.5549,0
187,11.955,0.0000,-0.5763,0
188,11.985,0.0000,-0.5868,0
189,12.014,0.0000,-0.5952,0
190,12.047,0.0000,-0.6078,0
191,12.076,0.0000,-0.6136,0
192,12.106,0.0120,-0.6130,0
193,12.136,1.5900,-0.4621,0
194,12.165,2.1520,-0.2680,0
195,12.195,1.9980,-0.0925,0
196,12.225,2.0320,0.0551,0
197,12.254,2.7300,0.2415,0
198,12.284,3.2160,0.4723,0
199,12.313,3.2260,0.6836,0
200,12.344,3.2300,0.8517,0
201,12.374,3.2300,1.0016,0
202,12.404,3.2320,1.1457,0
203,12.434,3.2320,1.2595,0
204,12.464,3.2320,1.3514,0
205,12.495,3.2320,1.4432,0
206,12.525,3.2280,1.5183,0
207,12.554,3.2300,1.5712,0
208,12.583,3.2320,1.6233,0
209,12.613,3.2320,1.6706,0
210,12.643,3.2320,1.6987,0
211,12.674,3.2320,1.7220,0
212,12.704,3.2320,1.7473,0
213,12.733,3.2320,1.7596,0
214,12.763,3.2320,1.7633,0
215,12.794,3.2320,1.7711,0
216,12.824,3.2320,1.7729,0
217,12.853,3.2320,1.7646,0
218,12.882,3.2320,1.7589,0
219,12.912,3.2300,1.7528,0
220,12.942,3.2300,1.7378,0
221,12.972,3.2280,1.7220,0
222,13.002,3.2280,1.7095,0
223,13.032,3.2240,1.6908,0
224,13.062,3.2180,1.6682,0
225,13.094,3.2120,1.6490,0
226,13.124,3.0640,1.6134,0
227,13.153,3.1960,1.5875,0
228,13.182,3.1580,1.5600,0
229,13.212,2.7600,1.4973,0
230,13.242,2.6220,1.4196,0
231,13.273,2.5540,1.3376,0
232,13.303,1.4260,1.1581,0
233,13.332,2.1220,1.0617,0
234,13.362,2.3700,0.9870,0
235,13.393,2.2840,0.9287,0
236,13.423,2.5680,0.9055,0
237,13.452,2.6920,0.8779,0
238,13.482,2.5180,0.8460,0
239,13.511,2.2740,0.8021,0
240,13.541,2.2000,0.7362,0
241,13.571,2.1640,0.6724,0
242,13.602,2.2760,0.6419,0
243,13.632,2.1140,0.5889,0
244,13.662,1.7520,0.4968,0
245,13.697,1.7580,0.4257,0
246,13.728,1.6660,0.3514,0
247,13.757,1.7640,0.2860,0
248,13.788,1.9400,0.2511,0
249,13.818,2.0540,0.2368,0
250,13.847,1.7140,0.1835,0
251,13.877,1.2400,0.0885,0
252,13.908,1.4620,0.0285,0
253,13.939,1.7980,0.0044,0
254,13.970,1.9360,0.0002,0
255,14.002,1.9360,0.0017,0
256,14.034,1.6260,-0.0323,0
257,14.064,0.1020,-0.2144,0
258,14.096,1.4300,-0.2458,0
259,14.128,1.5580,-0.2677,0
260,14.159,1.5560,-0.2681,0
261,14.188,1.8580,-0.2415,0
262,14.219,2.0840,-0.2094,0
263,14.249,2.0540,-0.1690,0
264,14.280,1.8280,-0.1490,0
265,14.313,1.5540,-0.1757,0
266,14.344,1.2960,-0.2223,0
267,14.373,1.4740,-0.2339,0
268,14.403,1.7640,-0.2258,0
269,14.434,1.7620,-0.2200,0
270,14.464,1.4540,-0.2315,0
271,14.494,1.3040,-0.2630,0
272,14.524,1.4100,-0.2910,0
273,14.554,1.6600,-0.2787,0
274,14.585,1.8220,-0.2467,0
275,14.618,1.8500,-0.2258,0
276,14.649,1.6140,-0.2266,0
277,14.680,1.4940,-0.2314,0
278,14.711,1.3740,-0.2570,0
279,14.742,1.3860,-0.2799,0
280,14.773,1.6220,-0.2673,0
281,14.805,0.7820,-0.3406,0
282,14.836,1.2040,-0.3703,0
283,14.867,2.0180,-0.3161,0
284,14.898,1.8900,-0.2673,0
285,14.930,1.8640,-0.2263,0
286,14.961,1.6580,-0.2228,0
287,14.993,1.7040,-0.2081,0
288,15.025,1.8340,-0.1760,0
289,15.056,1.9180,-0.1478,0
290,15.085,1.9320,-0.1201,0
291,15.116,1.8220,-0.0981,0
292,15.147,1.5660,-0.1097,0
293,15.179,1.4600,-0.1356,0
294,15.210,1.3500,-0.1630,0
295,15.243,1.3100,-0.1906,0
296,15.275,1.3960,-0.2128,0
297,15.305,1.6420,-0.2042,0
298,15.336,1.8140,-0.1739,0
299,15.367,1.8020,-0.1516,0
300,15.397,1.4040,-0.1718,0
301,15.429,1.2600,-0.2009,0
302,15.460,1.4120,-0.2158,0
303,15.491,1.4760,-0.2228,0
304,15.522,1.6020,-0.2101,0
305,15.555,1.6020,-0.2005,0
306,15.587,0.4880,-0.3040,0
307,15.618,1.7720,-0.2684,0
308,15.649,1.9920,-0.2191,0
309,15.680,1.7980,-0.1792,0
310,15.711,1.5860,-0.1679,0
311,15.742,1.7900,-0.1516,0
312,15.775,1.7280,-0.1331,0
313,15.807,1.8720,-0.0938,0
314,15.838,1.6600,-0.0939,0
315,15.872,1.5120,-0.1070,0
316,15.903,1.5720,-0.1028,0
317,15.934,1.6760,-0.0969,0
318,15.966,1.7180,-0.0903,0
319,15.997,1.6180,-0.0840,0
320,16.030,1.6600,-0.0773,0
321,16.062,1.4200,-0.1028,0
322,16.093,1.3360,-0.1261,0
323,16.125,1.5960,-0.1204,0
324,16.156,1.5100,-0.1305,0
325,16.189,1.6400,-0.1205,0
326,16.220,1.8520,-0.0884,0
327,16.251,1.9080,-0.0591,0
328,16.283,1.9560,-0.0256,0
329,16.314,2.3220,0.0432,0
330,16.345,1.1640,-0.0127,0
331,16.377,1.6620,-0.0144,0
332,16.409,1.5540,-0.0326,0
333,16.440,1.5440,-0.0404,0
334,16.471,1.7820,-0.0248,0
335,16.505,1.7500,-0.0212,0
336,16.537,1.8880,0.0027,0
337,16.569,1.8880,0.0261,0
338,16.600,1.6960,0.0213,0
339,16.632,1.5640,0.0053,0
340,16.663,1.3840,-0.0235,0
341,16.695,1.2020,-0.0713,0
342,16.726,1.0880,-0.1268,0
343,16.758,1.1720,-0.1638,0
344,16.790,1.3200,-0.1824,0
345,16.824,1.3140,-0.2004,0
346,16.856,1.3880,-0.2057,0
347,16.889,1.2700,-0.2219,0
348,16.922,1.4260,-0.2225,0
349,16.954,1.6760,-0.1972,0
350,16.987,1.7600,-0.1627,0
351,17.019,1.8640,-0.1219,0
352,17.052,1.7960,-0.0944,0
353,17.084,0.8240,-0.1631,0
354,17.117,2.0500,-0.1062,0
355,17.152,2.1260,-0.0541,0
356,17.184,2.1120,0.0087,0
357,17.216,2.1100,0.0591,0
358,17.249,2.0860,0.0873,0
359,17.281,2.1420,0.1298,0
360,17.313,1.8880,0.1473,0
361,17.346,1.5460,0.1146,0
362,17.378,1.4280,0.0743,0
363,17.410,1.3000,0.0351,0
364,17.441,1.3000,-0.0067,0
365,17.476,1.2860,-0.0501,0
366,17.508,1.2540,-0.0820,0
367,17.540,1.3240,-0.1041,0
368,17.572,1.4660,-0.1175,0
369,17.605,1.4400,-0.1249,0
370,17.638,1.3300,-0.1374,0
371,17.670,1.6040,-0.1307,0
372,17.703,1.7180,-0.1121,0
373,17.736,1.7720,-0.0796,0
374,17.769,1.6600,-0.0677,0
375,17.804,0.4360,-0.1830,0
376,17.837,1.8080,-0.1457,0
377,17.870,2.0380,-0.0946,0
378,17.903,2.0600,-0.0344,0
379,17.936,2.0680,0.0185,0
380,17.969,2.1060,0.0582,0
381,18.002,2.1680,0.1065,0
382,18.036,1.9260,0.1310,0
383,18.069,1.7060,0.1206,0
384,18.102,1.6940,0.1078,0
385,18.138,1.5040,0.0860,0
386,18.171,1.4880,0.0615,0
387,18.203,1.5700,0.0404,0
388,18.236,1.5620,0.0287,0
389,18.269,1.5700,0.0219,0
390,18.302,1.5800,0.0082,0
391,18.335,1.3640,-0.0225,0
392,18.369,1.6000,-0.0206,0
393,18.402,1.6740,-0.0188,0
394,18.435,1.7120,-0.0119,0
395,18.470,1.5760,-0.0128,0
396,18.503,0.4700,-0.1271,0
397,18.537,1.2580,-0.1578,0
398,18.570,1.8460,-0.1261,0
399,18.603,1.9520,-0.0721,0
400,18.636,1.9760,-0.0257,0
401,18.670,2.0360,0.0104,0
402,18.703,2.1200,0.0606,0
403,18.737,2.0000,0.0975,0
404,18.770,1.7120,0.0903,0
405,18.806,1.4360,0.0573,0
406,18.839,1.4120,0.0321,0
407,18.872,1.4120,0.0028,0
408,18.905,1.4340,-0.0228,0
409,18.938,1.4360,-0.0376,0
410,18.971,1.4300,-0.0537,0
411,19.004,1.4980,-0.0664,0
412,19.038,1.1680,-0.1043,0
413,19.071,1.2800,-0.1254,0
414,19.105,1.4140,-0.1390,0
415,19.140,1.3320,-0.1535,0
416,19.174,1.3780,-0.1559,0
417,19.208,0.6400,-0.2387,0
418,19.242,0.5300,-0.3238,0
419,19.275,1.5160,-0.3000,0
420,19.309,1.5920,-0.2685,0
421,19.342,1.6260,-0.2300,0
422,19.375,1.6640,-0.1973,0
423,19.408,1.7720,-0.1600,0
424,19.441,1.7960,-0.1173,0
425,19.477,1.7060,-0.0891,0
426,19.510,1.6400,-0.0764,0
427,19.543,1.5640,-0.0694,0
428,19.577,1.5940,-0.0574,0
429,19.610,1.5580,-0.0554,0
430,19.643,1.4780,-0.0606,0
431,19.676,1.4540,-0.0638,0
432,19.709,1.4400,-0.0715,0
433,19.742,1.4300,-0.0805,0
434,19.775,1.1440,-0.1124,0
435,19.810,1.4760,-0.1098,0
436,19.843,1.5000,-0.1090,0
437,19.877,1.5040,-0.1002,0
438,19.910,1.5460,-0.0886,0
439,19.944,0.4540,-0.1915,0
440,19.977,0.9760,-0.2296,0
441,20.010,1.6840,-0.1971,0
442,20.046,1.9400,-0.1347,0
443,20.081,2.0580,-0.0617,0
444,20.115,2.1260,0.0012,0
445,20.150,2.1680,0.0614,0
446,20.184,2.0660,0.1123,0
447,20.219,1.6820,0.1142,0
448,20.252,1.6740,0.1087,0
449,20.285,1.7120,0.1119,0
450,20.318,1.7420,0.1204,0
451,20.351,1.7780,0.1257,0
452,20.384,1.7800,0.1313,0
453,20.418,1.7820,0.1408,0
454,20.451,1.7800,0.1452,0
455,20.487,1.5200,0.1212,0
456,20.521,1.3040,0.0822,0
457,20.554,1.4600,0.0597,0
458,20.588,1.5020,0.0408,0
459,20.622,1.4500,0.0254,0
460,20.655,1.3520,0.0012,0
461,20.689,0.0000,-0.1586,0
462,20.722,1.2920,-0.1733,0
463,20.756,1.5980,-0.1591,0
464,20.789,1.5920,-0.1311,0
465,20.825,1.6700,-0.1020,0
466,20.859,1.8100,-0.0744,0
467,20.893,1.9360,-0.0262,0
468,20.928,1.8760,0.0164,0
469,20.962,1.7240,0.0263,0
470,20.996,1.7540,0.0391,0
471,21.031,1.8200,0.0662,0
472,21.066,1.7780,0.0797,0
473,21.100,1.6920,0.0787,0
474,21.135,1.6300,0.0789,0
475,21.172,1.3960,0.0547,0
476,21.207,1.3020,0.0168,0
477,21.241,1.2780,-0.0161,0
478,21.275,1.5260,-0.0169,0
479,21.310,1.5800,-0.0167,0
480,21.344,1.6900,-0.0040,0
481,21.377,1.3940,-0.0181,0
482,21.411,0.6060,-0.1112,0
483,21.444,1.8040,-0.0823,0
484,21.478,1.8840,-0.0456,0
485,21.515,2.0340,0.0173,0
486,21.550,2.0060,0.0591,0
487,21.584,1.9940,0.0882,0
488,21.620,1.8280,0.1108,0
489,21.654,1.5060,0.0963,0
490,21.689,1.3080,0.0509,0
491,21.723,1.3040,0.0167,0
492,21.757,1.3240,-0.0055,0
493,21.791,1.3920,-0.0276,0
494,21.825,1.4500,-0.0411,0
495,21.862,1.7560,-0.0138,0
496,21.897,1.7720,0.0077,0
497,21.930,1.7700,0.0237,0
498,21.964,1.6500,0.0314,0
499,21.998,1.8900,0.0607,0
500,22.032,1.8440,0.0771,0
501,22.066,1.8000,0.0930,0
502,22.100,1.6180,0.0892,0
503,22.134,0.6020,-0.0203,0
504,22.167,1.7640,-0.0041,0
505,22.203,1.6780,0.0020,0
506,22.237,1.6800,0.0193,0
507,22.271,1.6640,0.0250,0
508,22.305,1.7100,0.0285,0
509,22.339,1.7620,0.0474,0
510,22.373,1.4980,0.0377,0
511,22.408,1.3980,0.0096,0
512,22.441,1.4060,-0.0113,0
513,22.476,1.4820,-0.0162,0
514,22.510,1.5500,-0.0200,0
515,22.546,1.7740,-0.0022,0
516,22.580,1.8020,0.0236,0
517,22.614,1.7980,0.0446,0
518,22.648,1.8040,0.0580,0
519,22.682,1.5040,0.0447,0
520,22.716,1.7040,0.0542,0
521,22.750,1.7300,0.0577,0
522,22.784,1.7380,0.0663,0
523,22.817,1.7100,0.0750,0
524,22.851,0.5520,-0.0377,0
525,22.887,1.1420,-0.0826,0
526,22.922,1.6480,-0.0737,0
527,22.955,1.6720,-0.0523,0
528,22.988,1.6400,-0.0370,0
529,23.024,1.7720,-0.0199,0
530,23.058,1.8760,0.0114,0
531,23.091,1.7360,0.0319,0
532,23.125,1.4860,0.0166,0
533,23.158,1.4760,-0.0008,0
534,23.192,1.4680,-0.0096,0
535,23.228,1.7200,0.0055,0
536,23.261,1.7220,0.0142,0
537,23.295,1.7180,0.0283,0
538,23.329,1.7760,0.0467,0
539,23.363,1.7780,0.0568,0
540,23.397,1.7920,0.0709,0
541,23.436,1.3540,0.0436,0
542,23.468,1.4440,0.0216,0
543,23.501,1.5820,0.0126,0
544,23.535,1.6020,0.0157,0
545,23.571,1.4200,-0.0006,0
546,23.605,1.2320,-0.0413,0
547,23.638,0.3000,-0.1650,0
548,23.671,1.5040,-0.1554,0
549,23.705,1.6400,-0.1418,0
550,23.739,1.6440,-0.1127,0
551,23.772,1.6740,-0.0844,0
552,23.806,1.7660,-0.0647,0
553,23.839,1.8180,-0.0325,0
554,23.872,1.5840,-0.0186,0
555,23.908,1.5820,-0.0203,0
556,23.942,1.6140,-0.0203,0
557,23.975,1.5880,-0.0093,0
558,24.009,1.5860,-0.0059,0
559,24.045,1.8180,0.0110,0
560,24.079,1.8240,0.0379,0
561,24.113,1.8560,0.0682,0
562,24.146,1.8680,0.0836,0
563,24.180,1.8560,0.1004,0
564,24.214,1.8340,0.1213,0
565,24.249,1.5100,0.0986,0
566,24.282,1.6700,0.0905,0
567,24.315,1.7880,0.1026,0
568,24.348,1.8600,0.1205,0
569,24.381,1.8980,0.1339,0
570,24.415,0.9840,0.0597,0
571,24.449,1.3360,0.0293,0
572,24.483,1.9080,0.0470,0
573,24.516,1.9220,0.0751,0
574,24.550,1.9100,0.1079,0
575,24.585,1.7580,0.1062,0
576,24.620,1.7680,0.1056,0
577,24.654,1.6940,0.1101,0
578,24.687,1.4100,0.0784,0
579,24.721,1.3500,0.0360,0
580,24.756,1.4080,0.0131,0
581,24.789,1.3820,-0.0076,0
582,24.822,1.4020,-0.0327,0
583,24.856,1.4300,-0.0488,0
584,24.889,1.4380,-0.0559,0
585,24.925,1.6260,-0.0498,0
586,24.959,1.6140,-0.0469,0
587,24.992,1.6300,-0.0345,0
588,25.027,1.6280,-0.0273,0
589,25.060,1.6520,-0.0237,0
590,25.095,1.8660,0.0068,0
591,25.129,1.8800,0.0369,0
592,25.163,1.8860,0.0593,0
593,25.198,1.2120,0.0142,0
594,25.232,1.1920,-0.0262,0
595,25.269,1.6080,-0.0294,0
596,25.303,1.6020,-0.0281,0
597,25.337,1.5700,-0.0212,0
598,25.370,1.6060,-0.0211,0
599,25.404,1.7040,-0.0139,0
600,25.437,1.6700,-0.0001,0
601,25.471,1.4160,-0.0160,0
602,25.504,1.3260,-0.0478,0
603,25.538,1.3500,-0.0679,0
604,25.572,1.3660,-0.0799,0
605,25.607,1.5160,-0.0826,0
606,25.641,1.5160,-0.0838,0
607,25.675,1.5580,-0.0734,0
608,25.708,1.5800,-0.0669,0
609,25.741,1.5620,-0.0659,0
610,25.774,1.5360,-0.0610,0
611,25.807,1.4240,-0.0688,0
612,25.840,1.3840,-0.0851,0
613,25.873,1.5200,-0.0827,0
614,25.907,1.5380,-0.0754,0
615,25.943,1.7920,-0.0475,0
616,25.977,1.4420,-0.0569,0
617,26.011,0.9860,-0.1054,0
618,26.047,1.9440,-0.0615,0
619,26.082,1.8700,-0.0310,0
620,26.118,1.6640,-0.0079,0
621,26.153,1.6520,0.0014,0
622,26.187,1.7080,0.0042,0
623,26.220,1.6860,0.0199,0
624,26.254,1.4300,0.0098,0
625,26.290,1.5520,-0.0027,0
626,26.324,1.5720,-0.0059,0
627,26.358,1.6000,0.0060,0
628,26.391,1.5900,0.0034,0
629,26.424,1.5440,-0.0068,0
630,26.457,1.5700,-0.0006,0
631,26.490,1.5440,-0.0024,0
632,26.523,1.5280,-0.0141,0
633,26.556,1.5160,-0.0165,0
634,26.590,1.5400,-0.0141,0
635,26.626,1.7680,0.0010,0
636,26.660,1.7200,0.0141,0
637,26.694,1.9220,0.0533,0
638,26.728,1.9380,0.0808,0
639,26.763,1.8960,0.1007,0
640,26.797,1.6020,0.0969,0
641,26.831,0.8040,0.0095,0
642,26.864,1.8940,0.0304,0
643,26.898,1.9280,0.0581,0
644,26.932,1.8540,0.0901,0
645,26.969,1.7040,0.0893,0
646,27.003,1.7780,0.0893,0
647,27.038,1.8300,0.1096,0
648,27.072,1.6260,0.1048,0
649,27.106,1.5460,0.0801,0
650,27.140,1.5840,0.0691,0
651,27.173,1.5520,0.0625,0
652,27.206,1.5820,0.0495,0
653,27.240,1.6020,0.0398,0
654,27.273,1.6300,0.0433,0
655,27.309,1.8880,0.0664,0
656,27.343,2.1500,0.1079,0
657,27.378,2.5220,0.1914,0
658,27.412,2.0620,0.2209,0
659,27.447,1.6900,0.2018,0
660,27.481,1.5360,0.1676,0
661,27.515,1.2020,0.1088,0
662,27.550,1.3320,0.0661,0
663,27.583,1.3220,0.0224,0
664,27.618,1.2920,-0.0119,0
665,27.654,1.1960,-0.0515,0
666,27.689,0.1620,-0.1948,0
667,27.723,1.3200,-0.2072,0
668,27.757,1.7540,-0.1752,0
669,27.790,1.7880,-0.1310,0
670,27.824,1.8680,-0.0869,0
671,27.858,1.9700,-0.0466,0
672,27.891,2.0860,0.0093,0
673,27.925,1.9240,0.0468,0
674,27.958,1.5080,0.0291,0
675,27.994,1.5860,0.0205,0
676,28.029,1.9220,0.0512,0
677,28.063,1.9800,0.0831,0
678,28.096,2.0360,0.1154,0
679,28.130,2.0060,0.1429,0
680,28.163,1.9140,0.1581,0
681,28.197,1.8960,0.1667,0
682,28.232,1.7620,0.1613,0
683,28.266,1.6780,0.1495,0
684,28.300,1.5760,0.1260,0
685,28.337,1.3080,0.0779,0
686,28.371,1.6120,0.0664,0
687,28.406,1.7120,0.0642,0
688,28.441,1.9660,0.0902,0
689,28.475,2.1380,0.1311,0
690,28.510,1.2840,0.0826,0
691,28.545,3.1720,0.2229,0
692,28.580,3.2240,0.3505,0
693,28.615,3.2300,0.4832,0
694,28.649,3.2300,0.5886,0
695,28.687,3.2320,0.6686,0
696,28.722,3.2320,0.7545,0
697,28.755,3.2340,0.8300,0
698,28.789,3.2320,0.8791,0
699,28.823,3.2340,0.9291,0
700,28.856,3.2340,0.9806,0
701,28.890,3.2320,1.0109,0
702,28.923,3.2340,1.0351,0
703,28.956,3.2340,1.0664,0
704,28.990,1.7840,0.9435,0
705,29.027,1.7520,0.8184,0
706,29.061,1.6140,0.6916,0
707,29.095,3.2220,0.7464,0
708,29.128,1.8160,0.6542,0
709,29.162,1.8840,0.5805,0
710,29.195,1.7320,0.4862,0
711,29.229,1.6760,0.4023,0
712,29.262,0.0000,0.1704,0
713,29.296,1.6900,0.1160,0
714,29.330,1.6540,0.0559,0
715,29.367,1.6580,0.0377,0
716,29.401,3.2320,0.1628,0
717,29.436,2.1980,0.1528,0
718,29.470,1.8540,0.1446,0
719,29.504,3.2340,0.2579,0
720,29.538,0.0000,0.0000,1
721,29.570,0.0000,0.0000,1
722,29.602,0.0000,0.0000,1
723,29.634,0.0000,0.0000,1
724,29.666,0.0000,0.0000,1
725,29.701,0.0000,0.0000,1
726,29.733,0.0000,0.0000,1
727,29.764,0.0000,0.0000,1
728,29.796,0.0000,0.0000,1
729,29.828,0.0000,0.0000,1
730,29.860,0.0000,0.0000,1
731,29.892,0.0000,0.0000,1
732,29.925,0.0000,0.0000,1
733,29.958,0.0000,0.0000,1
734,29.991,0.0000,0.0000,1
735,30.028,0.0000,0.0000,1
736,30.061,0.0000,0.0000,1
737,30.094,0.0000,0.0000,1
738,30.127,0.0000,0.0000,1
739,30.160,0.0000,0.0000,1
740,30.193,0.0000,0.0000,1
741,30.226,0.0000,0.0000,1
742,30.258,0.0000,0.0000,1
743,30.291,0.0000,0.0000,1
744,30.324,0.0000,0.0000,1
745,30.360,0.0000,0.0000,1
746,30.392,0.0000,0.0000,1
747,30.425,0.0000,0.0000,1
748,30.457,0.0000,0.0000,1
749,30.490,0.0000,0.0000,1
750,30.523,0.0000,0.0000,1
751,30.556,0.0000,0.0000,1
752,30.589,0.0000,0.0000,1
753,30.621,0.0000,0.0000,1
754,30.653,0.0000,0.0000,1
755,30.689,0.0000,0.0000,1
756,30.722,0.0000,0.0000,1
757,30.754,0.0000,0.0184,0
758,30.788,0.0000,0.0000,1
759,30.821,0.0000,-0.1635,0
760,30.855,0.0000,0.0000,1
761,30.887,0.0000,0.0000,1
762,30.920,0.0000,-0.3520,0
763,30.955,0.0000,0.0000,1
764,30.988,0.0000,0.0000,1
765,31.026,0.0000,0.0000,1
766,31.059,0.0000,0.0000,1
767,31.091,0.0000,0.0000,1
768,31.124,0.0000,0.0000,1
769,31.156,0.0000,0.0000,1
770,31.189,0.0000,0.0000,1
771,31.222,0.0000,0.0000,1
772,31.254,0.0000,0.0000,1
773,31.287,0.0000,0.0000,1
774,31.319,0.0000,0.0000,1
775,31.355,0.0000,0.0000,1
776,31.387,0.0000,0.0000,1
777,31.419,0.0000,0.0000,1
778,31.452,0.0000,0.0000,1
779,31.484,0.0000,0.0000,1
780,31.516,0.0000,0.0000,1
781,31.548,0.0000,-0.5273,0
782,31.583,0.0000,0.0000,1
783,31.615,0.0000,-0.6496,0
784,31.650,0.0000,-0.7656,0
785,31.687,1.8060,-0.7121,0
786,31.722,1.6260,-0.6538,0
787,31.757,0.0000,0.0000,1
788,31.790,0.0000,0.0000,1
789,31.822,3.2320,-0.4226,0
790,31.858,1.6360,-0.4081,0
791,31.893,1.6420,-0.3826,0
792,31.927,1.6400,-0.3508,0
793,31.963,0.0000,-0.4981,0
794,31.997,0.0000,0.0000,1
795,32.033,3.2340,-0.3139,0
796,32.068,3.2340,-0.1406,0
797,32.105,0.0000,0.0000,1
798,32.138,0.0000,0.0000,1
799,32.171,0.0000,0.0000,1
800,32.203,3.2340,0.0408,0
801,32.237,0.0000,0.0000,1
802,32.270,3.2340,0.1750,0
803,32.304,0.0000,0.0000,1
804,32.336,3.2340,0.2825,0
805,32.376,0.0000,0.0000,1
806,32.409,0.0000,0.0000,1
807,32.442,0.0000,0.0000,1
808,32.474,0.0000,0.0000,1
809,32.507,0.0000,0.0000,1
810,32.540,0.0000,0.0000,1
811,32.574,0.0000,0.0000,1
812,32.608,0.0000,0.0000,1
813,32.642,0.0000,0.0000,1
814,32.676,0.0000,0.0000,1
815,32.712,0.0000,0.0000,1
816,32.745,0.0000,0.0000,1
817,32.778,0.0000,0.0000,1
818,32.811,0.0000,0.0000,1
819,32.843,0.0000,0.0000,1
820,32.877,0.0000,0.0000,1
821,32.910,0.0000,0.0000,1
822,32.943,0.0000,0.0000,1
823,32.976,0.0000,0.0000,1
824,33.008,3.2320,0.4060,0
825,33.049,1.6660,0.3528,0
826,33.085,1.6420,0.2761,0
827,33.119,3.2340,0.3717,0
828,33.154,3.2320,0.4792,0
829,33.188,1.6320,0.4102,0
830,33.223,1.6480,0.3271,0
831,33.257,1.6460,0.2566,0
832,33.292,1.5260,0.2010,0
833,33.327,0.0000,-0.0128,0
834,33.362,0.0000,-0.2154,0
835,33.399,0.0000,-0.3867,0
836,33.435,0.0000,-0.5284,0
837,33.471,0.0000,-0.6637,0
838,33.508,0.0000,-0.7827,0
839,33.544,0.0000,-0.8753,0
840,33.579,0.0000,-0.9606,0
841,33.614,0.0000,-1.0406,0
842,33.650,0.0000,-1.1002,0
843,33.684,0.0000,-1.1498,0
844,33.719,0.0000,-1.1997,0
845,33.756,0.0000,-1.2370,0
846,33.791,0.0000,-1.2624,0
847,33.831,0.0000,-1.2890,0
848,33.865,0.0660,-1.3041,0
849,33.901,0.3020,-1.2850,0
850,33.936,0.6200,-1.2364,0
851,33.972,1.0640,-1.1492,0
852,34.008,1.3080,-1.0389,0
853,34.047,1.1620,-0.9516,0
854,34.082,1.3100,-0.8641,0
855,34.120,1.5940,-0.7569,0
856,34.154,1.7580,-0.6374,0
857,34.188,2.0160,-0.5070,0
858,34.222,2.2440,-0.3720,0
859,34.256,2.3660,-0.2337,0
860,34.291,2.4400,-0.1022,0
861,34.325,2.1680,-0.0183,0
862,34.360,2.4080,0.0809,0
863,34.394,2.3920,0.1688,0
864,34.429,2.3520,0.2417,0
865,34.466,2.0100,0.2699,0
866,34.502,1.0860,0.2039,0
867,34.537,2.2720,0.2572,0
868,34.574,2.6540,0.3382,0
869,34.610,2.6400,0.4258,0
870,34.647,2.3780,0.4720,0
871,34.682,2.3080,0.4903,0
872,34.717,2.2280,0.5075,0
873,34.751,2.1140,0.5170,0
874,34.785,2.1620,0.5152,0
875,34.823,2.4300,0.5402,0
876,34.857,2.3620,0.5675,0
877,34.892,2.2680,0.5747,0
878,34.928,2.1120,0.5558,0
879,34.963,1.9140,0.5283,0
880,34.998,1.7900,0.4910,0
881,35.034,1.8280,0.4498,0
882,35.069,1.7280,0.4080,0
883,35.106,2.0880,0.4126,0
884,35.141,2.1800,0.4161,0
885,35.180,1.7940,0.3830,0
886,35.215,1.5000,0.3304,0
887,35.250,0.7040,0.1949,0
888,35.284,1.6900,0.1670,0
889,35.319,1.8700,0.1672,0
890,35.353,1.9120,0.1809,0
891,35.387,1.9140,0.1822,0
892,35.421,1.9120,0.1806,0
893,35.455,1.9240,0.1909,0
894,35.490,1.8240,0.1854,0
895,35.527,1.6440,0.1551,0
896,35.562,1.5500,0.1257,0
897,35.597,1.4700,0.0923,0
898,35.633,1.4700,0.0550,0
899,35.668,1.6140,0.0393,0
900,35.704,1.7680,0.0459,0
901,35.740,1.8180,0.0524,0
902,35.775,1.7700,0.0524,0
903,35.810,1.3620,0.0169,0
904,35.845,1.4240,-0.0119,0
905,35.883,1.4800,-0.0376,0
906,35.918,1.5460,-0.0463,0
907,35.952,1.4400,-0.0627,0
908,35.986,0.4260,-0.1837,0
909,36.022,1.7260,-0.1639,0
910,36.057,1.8780,-0.1296,0
911,36.092,1.8220,-0.0916,0
912,36.128,1.6100,-0.0864,0
913,36.163,1.4860,-0.1022,0
914,36.199,1.4200,-0.1129,0
915,36.237,1.6080,-0.1030,0
916,36.273,1.7340,-0.0908,0
917,36.309,1.6760,-0.0786,0
918,36.343,1.5840,-0.0716,0
919,36.378,1.4560,-0.0879,0
920,36.413,1.3940,-0.1081,0
921,36.447,1.3680,-0.1207,0
922,36.481,1.3540,-0.1381,0
923,36.515,1.3600,-0.1567,0
924,36.550,1.1040,-0.1908,0
925,36.587,1.6220,-0.1709,0
926,36.622,1.8080,-0.1414,0
927,36.656,1.7880,-0.1066,0
928,36.692,1.6120,-0.0914,0
929,36.727,0.4680,-0.2010,0
930,36.761,1.4360,-0.2024,0
931,36.797,1.5560,-0.1895,0
932,36.832,1.5780,-0.1671,0
933,36.868,1.6620,-0.1443,0
934,36.904,1.8600,-0.1085,0
935,36.942,1.7960,-0.0742,0
936,36.977,1.5560,-0.0672,0
937,37.012,1.4600,-0.0796,0
938,37.050,1.5020,-0.0835,0
939,37.085,1.6420,-0.0671,0
940,37.121,1.8100,-0.0412,0
941,37.157,1.8100,-0.0188,0
942,37.191,1.7340,0.0002,0
943,37.226,1.6360,0.0036,0
944,37.261,1.5320,-0.0083,0
945,37.299,1.1720,-0.0493,0
946,37.333,1.4220,-0.0614,0
947,37.369,1.7200,-0.0495,0
948,37.404,1.8640,-0.0170,0
949,37.440,1.8000,0.0102,0
950,37.474,0.4700,-0.1048,0
951,37.509,1.4020,-0.1185,0
952,37.544,1.6740,-0.1036,0
953,37.579,1.6340,-0.0810,0
954,37.613,1.5740,-0.0722,0
955,37.650,1.6580,-0.0653,0
956,37.684,1.6960,-0.0454,0
957,37.718,1.6700,-0.0269,0
958,37.752,1.6860,-0.0196,0
959,37.787,1.8380,0.0047,0
960,37.822,1.8460,0.0355,0
961,37.856,1.8420,0.0559,0
962,37.890,1.8060,0.0663,0
963,37.924,1.7860,0.0812,0
964,37.958,1.7700,0.0912,0
965,37.995,1.4580,0.0628,0
966,38.030,1.4300,0.0388,0
967,38.066,1.2240,-0.0021,0
968,38.103,1.6920,0.0029,0
969,38.138,1.8680,0.0264,0
970,38.174,1.8140,0.0500,0
971,38.208,1.6580,0.0504,0
972,38.243,0.3460,-0.0833,0
973,38.277,1.3280,-0.1027,0
974,38.311,1.6640,-0.0925,0
975,38.349,1.6720,-0.0707,0
976,38.384,1.7180,-0.0452,0
977,38.418,1.7720,-0.0288,0
978,38.452,1.8280,-0.0029,0
979,38.487,1.7700,0.0218,0
980,38.521,1.7880,0.0359,0
981,38.555,1.8540,0.0530,0
982,38.589,1.8340,0.0759,0
983,38.623,1.8340,0.0923,0
984,38.657,1.8280,0.0990,0
985,38.696,1.4620,0.0762,0
986,38.731,1.4360,0.0542,0
987,38.766,1.4960,0.0299,0
988,38.802,1.6720,0.0311,0
989,38.837,1.5160,0.0244,0
990,38.872,1.7300,0.0312,0
991,38.906,1.8460,0.0457,0
992,38.941,1.7960,0.0649,0
993,38.975,1.6920,0.0683,0
994,39.010,0.2980,-0.0746,0
995,39.049,1.4840,-0.0813,0
996,39.084,1.7740,-0.0617,0
997,39.118,1.8120,-0.0293,0
998,39.152,1.8300,0.0002,0
999,39.186,1.8600,0.0199,0
1000,39.220,1.8980,0.0474,0
1001,39.254,1.7880,0.0658,0
1002,39.288,1.7700,0.0714,0
1003,39.321,1.8320,0.0818,0
1004,39.355,1.8380,0.0996,0
1005,39.392,1.6080,0.0887,0
1006,39.427,1.5220,0.0648,0
1007,39.462,1.4500,0.0408,0
1008,39.498,1.4760,0.0237,0
1009,39.533,1.5980,0.0151,0
1010,39.569,1.6000,0.0101,0
1011,39.604,1.5840,0.0087,0
1012,39.639,1.8680,0.0304,0
1013,39.673,1.8240,0.0446,0
1014,39.708,1.8100,0.0630,0
1015,39.745,0.3360,-0.0696,0
1016,39.779,1.2580,-0.1048,0
1017,39.813,1.5860,-0.1059,0
1018,39.847,1.6000,-0.0861,0
1019,39.881,1.5680,-0.0776,0
1020,39.915,1.5380,-0.0865,0
1021,39.948,1.5740,-0.0777,0
1022,39.982,1.5760,-0.0651,0
1023,40.017,1.5860,-0.0669,0
1024,40.054,1.8160,-0.0415,0
1025,40.092,1.6400,-0.0254,0
1026,40.127,1.5000,-0.0334,0
1027,40.162,1.4380,-0.0535,0
1028,40.198,1.4880,-0.0558,0
1029,40.233,1.6060,-0.0464,0
1030,40.268,1.7060,-0.0366,0
1031,40.303,1.8300,-0.0092,0
1032,40.338,1.6000,-0.0025,0
1033,40.373,1.8280,0.0174,0
1034,40.408,1.7600,0.0271,0
1035,40.446,1.5020,0.0205,0
1036,40.481,0.9560,-0.0452,0
1037,40.515,1.0520,-0.1033,0
1038,40.549,1.7080,-0.0835,0
1039,40.584,1.8280,-0.0464,0
1040,40.618,1.8800,-0.0123,0
1041,40.652,1.9000,0.0163,0
1042,40.686,1.9380,0.0512,0
1043,40.720,1.9300,0.0811,0
1044,40.754,1.7920,0.0887,0
1045,40.792,1.6340,0.0823,0
1046,40.826,1.5700,0.0714,0
1047,40.862,1.4520,0.0455,0
1048,40.897,1.4500,0.0229,0
1049,40.933,1.6260,0.0230,0
1050,40.968,1.7480,0.0332,0
1051,41.003,1.8300,0.0508,0
1052,41.039,1.8200,0.0679,0
1053,41.074,1.4500,0.0452,0
1054,41.108,1.4940,0.0266,0
1055,41.146,1.4860,0.0088,0
1056,41.181,1.5300,0.0007,0
1057,41.217,1.6320,0.0022,0
1058,41.251,0.4720,-0.1116,0
1059,41.287,1.6420,-0.0976,0
1060,41.321,1.9740,-0.0585,0
1061,41.356,1.9300,-0.0120,0
1062,41.391,1.7840,0.0136,0
1063,41.425,1.7320,0.0163,0
1064,41.459,1.6900,0.0226,0
1065,41.496,1.4340,0.0110,0
1066,41.530,1.4320,-0.0126,0
1067,41.564,1.5120,-0.0275,0
1068,41.598,1.5180,-0.0267,0
1069,41.632,1.5820,-0.0250,0
1070,41.666,1.6100,-0.0293,0
1071,41.700,1.6720,-0.0164,0
1072,41.734,1.7220,0.0019,0
1073,41.768,1.7580,0.0117,0
1074,41.802,1.8020,0.0291,0
1075,41.839,1.6100,0.0324,0
1076,41.874,1.4760,0.0138,0
1077,41.912,1.4900,-0.0047,0
1078,41.947,1.5380,-0.0080,0
1079,41.983,1.7320,0.0066,0
1080,42.019,0.5180,-0.1050,0
1081,42.055,1.4480,-0.1094,0
1082,42.090,1.8500,-0.0790,0
1083,42.125,1.7780,-0.0483,0
1084,42.159,1.7200,-0.0247,0
1085,42.195,1.5460,-0.0327,0
1086,42.230,1.5660,-0.0338,0
1087,42.264,1.5100,-0.0335,0
1088,42.298,1.5280,-0.0388,0
1089,42.333,1.6920,-0.0296,0
1090,42.367,1.7060,-0.0112,0
1091,42.401,1.7540,0.0081,0
1092,42.435,1.8380,0.0267,0
1093,42.469,1.8640,0.0516,0
1094,42.503,1.8680,0.0772,0
1095,42.541,1.6740,0.0735,0
1096,42.576,1.5640,0.0599,0
1097,42.611,1.3780,0.0335,0
1098,42.646,1.2520,-0.0067,0
1099,42.682,1.6620,-0.0050,0
1100,42.716,1.7360,0.0096,0
1101,42.752,1.9120,0.0432,0
1102,42.786,1.0060,-0.0221,0
1103,42.821,1.6080,-0.0213,0
1104,42.856,1.8620,0.0033,0
1105,42.894,1.5700,0.0041,0
1106,42.929,1.5660,0.0023,0
1107,42.965,1.6440,-0.0001,0
1108,43.000,1.7480,0.0150,0
1109,43.036,1.8400,0.0419,0
1110,43.070,1.7720,0.0511,0
1111,43.106,1.7800,0.0610,0
1112,43.140,1.6640,0.0639,0
1113,43.174,1.6000,0.0555,0
1114,43.209,1.5340,0.0378,0
1115,43.246,1.4600,0.0204,0
1116,43.280,1.4960,0.0078,0
1117,43.315,1.5300,-0.0053,0
1118,43.349,1.6080,-0.0049,0
1119,43.384,1.5060,-0.0118,0
1120,43.418,1.7760,0.0037,0
1121,43.452,1.8740,0.0271,0
1122,43.486,1.8900,0.0566,0
1123,43.520,1.7000,0.0603,0
1124,43.554,0.7420,-0.0353,0
1125,43.592,1.5920,-0.0349,0
1126,43.626,1.6480,-0.0320,0
1127,43.662,1.5860,-0.0265,0
1128,43.697,1.6580,-0.0169,0
1129,43.732,1.7740,-0.0040,0
1130,43.768,1.8640,0.0234,0
1131,43.802,1.8040,0.0451,0
1132,43.837,1.8580,0.0617,0
1133,43.871,1.8700,0.0783,0
1134,43.905,1.8180,0.0948,0
1135,43.943,1.5100,0.0738,0
1136,43.978,1.4660,0.0461,0
1137,44.013,1.5080,0.0300,0
1138,44.061,1.4600,0.0125,0
1139,44.099,1.6300,0.0092,0
1140,44.133,1.4720,-0.0078,0
1141,44.168,1.7860,0.0124,0
1142,44.202,1.9300,0.0399,0
1143,44.237,1.8960,0.0627,0
1144,44.272,1.5860,0.0564,0
1145,44.311,0.7820,-0.0335,0
1146,44.347,1.6300,-0.0355,0
1147,44.382,1.8160,-0.0157,0
1148,44.417,1.9080,0.0229,0
1149,44.452,1.9360,0.0516,0
1150,44.486,1.9540,0.0734,0
1151,44.521,1.9000,0.0977,0
1152,44.555,1.7220,0.1001,0
1153,44.591,1.5600,0.0764,0
1154,44.626,1.5000,0.0543,0
1155,44.663,1.5000,0.0389,0
1156,44.698,1.5640,0.0241,0
1157,44.732,1.6800,0.0231,0
1158,44.767,1.7380,0.0350,0
1159,44.802,1.8280,0.0507,0
1160,44.837,1.8200,0.0601,0
1161,44.872,1.6580,0.0586,0
1162,44.907,1.3760,0.0285,0
1163,44.942,1.5260,0.0092,0
1164,44.978,1.5020,-0.0072,0
1165,45.018,1.9320,0.0268,0
1166,45.055,0.5100,-0.0879,0
1167,45.090,1.2520,-0.1190,0
1168,45.123,1.8000,-0.0974,0
1169,45.158,1.7500,-0.0689,0
1170,45.192,1.6220,-0.0550,0
1171,45.226,1.5740,-0.0616,0
1172,45.260,1.5240,-0.0663,0
1173,45.294,1.4760,-0.0662,0
1174,45.327,1.3940,-0.0851,0
1175,45.364,1.6100,-0.0826,0
1176,45.399,1.6940,-0.0608,0
1177,45.433,1.7620,-0.0371,0
1178,45.468,1.8300,-0.0172,0
1179,45.502,1.8480,0.0096,0
1180,45.537,1.8320,0.0350,0
1181,45.572,1.7160,0.0373,0
1182,45.607,1.5800,0.0276,0
1183,45.643,1.4820,0.0146,0
1184,45.678,1.4320,-0.0079,0
1185,45.716,1.4920,-0.0241,0
1186,45.752,1.8900,0.0072,0
1187,45.787,1.8820,0.0340,0
1188,45.822,1.8420,0.0516,0
1189,45.856,1.0460,-0.0100,0
1190,45.890,1.2680,-0.0441,0
1191,45.924,1.7420,-0.0346,0
1192,45.957,1.7140,-0.0198,0
1193,45.991,1.6960,-0.0031,0
1194,46.027,1.5560,-0.0137,0
1195,46.065,1.7160,-0.0061,0
1196,46.100,1.8560,0.0233,0
1197,46.135,1.7860,0.0379,0
1198,46.169,1.8880,0.0563,0
1199,46.203,1.8640,0.0763,0
1200,46.237,1.8500,0.0936,0
1201,46.270,1.8200,0.0992,0
1202,46.304,1.8060,0.1051,0
1203,46.338,1.7600,0.1097,0
1204,46.371,1.7760,0.1100,0
1205,46.408,1.5260,0.0845,0
1206,46.442,1.4660,0.0606,0
1207,46.476,1.4880,0.0372,0
1208,46.510,1.3900,0.0048,0
1209,46.543,1.2480,-0.0327,0
1210,46.577,1.5320,-0.0403,0
1211,46.612,1.5200,-0.0517,0
1212,46.645,1.5940,-0.0474,0
1213,46.679,1.1200,-0.0907,0
1214,46.713,1.1160,-0.1357,0
1215,46.749,1.9120,-0.0972,0
1216,46.783,1.9540,-0.0505,0
1217,46.818,1.9660,-0.0052,0
1218,46.853,1.8860,0.0181,0
1219,46.889,1.7620,0.0290,0
1220,46.924,1.6360,0.0315,0
1221,46.959,1.4060,0.0042,0
1222,46.994,1.4840,-0.0149,0
1223,47.029,1.5080,-0.0236,0
1224,47.064,1.6580,-0.0166,0
1225,47.103,1.8400,0.0029,0
1226,47.137,1.7920,0.0202,0
1227,47.171,1.7480,0.0339,0
1228,47.205,1.7240,0.0370,0
1229,47.238,1.7040,0.0385,0
1230,47.272,1.6860,0.0432,0
1231,47.306,1.6540,0.0401,0
1232,47.339,1.3520,0.0051,0
1233,47.374,1.5260,-0.0049,0
1234,47.407,1.5900,-0.0097,0
1235,47.444,1.4940,-0.0236,0
1236,47.478,1.2880,-0.0534,0
1237,47.513,0.6960,-0.1404,0
1238,47.547,1.6660,-0.1263,0
1239,47.582,1.9540,-0.0829,0
1240,47.617,1.9980,-0.0274,0
1241,47.652,1.9900,0.0140,0
1242,47.687,1.8940,0.0339,0
1243,47.723,1.6880,0.0412,0
1244,47.758,1.4920,0.0274,0
1245,47.796,1.5400,0.0089,0
1246,47.832,1.7260,0.0164,0
1247,47.866,1.8160,0.0394,0
1248,47.901,1.8460,0.0551,0
1249,47.935,1.8760,0.0702,0
1250,47.969,1.8880,0.0926,0
1251,48.003,1.8440,0.1049,0
1252,48.039,1.6400,0.0900,0
1253,48.074,1.5220,0.0700,0
1254,48.110,1.4580,0.0458,0
1255,48.146,1.3620,0.0093,0
1256,48.182,1.6940,0.0122,0
1257,48.217,1.8860,0.0372,0
1258,48.252,1.9620,0.0659,0
1259,48.286,1.5920,0.0540,0
1260,48.320,1.2040,0.0061,0
1261,48.354,1.8960,0.0273,0
1262,48.388,2.0420,0.0605,0
1263,48.422,2.0280,0.0992,0
1264,48.455,1.9240,0.1176,0
1265,48.493,1.4900,0.0840,0
1266,48.528,1.7640,0.0876,0
1267,48.562,1.5440,0.0683,0
1268,48.597,1.6480,0.0578,0
1269,48.632,1.8380,0.0680,0
1270,48.667,1.8860,0.0858,0
1271,48.703,1.8280,0.0942,0
1272,48.738,1.6900,0.0852,0
1273,48.774,1.5640,0.0667,0
1274,48.810,1.5820,0.0515,0
1275,48.848,1.8320,0.0600,0
1276,48.883,1.9040,0.0772,0
1277,48.918,2.0760,0.1124,0
1278,48.952,1.8140,0.1142,0
1279,48.987,1.9140,0.1252,0
1280,49.024,1.5940,0.1042,0
1281,49.059,1.5420,0.0800,0
1282,49.094,0.8560,-0.0125,0
1283,49.129,1.2420,-0.0563,0
1284,49.163,1.7580,-0.0462,0
1285,49.203,1.9760,-0.0094,0
1286,49.238,1.8100,0.0104,0
1287,49.272,1.6740,0.0082,0
1288,49.308,1.6080,-0.0018,0
1289,49.342,1.6720,0.0008,0
1290,49.376,1.5880,-0.0072,0
1291,49.411,1.7000,-0.0063,0
1292,49.445,1.5980,-0.0124,0
1293,49.479,1.6700,-0.0090,0
1294,49.513,1.7160,-0.0060,0
1295,49.549,2.0700,0.0333,0
1296,49.584,2.3160,0.0965,0
1297,49.617,2.5940,0.1790,0
1298,49.650,2.7320,0.2643,0
1299,49.684,2.8760,0.3568,0
1300,49.717,2.6100,0.4117,0
1301,49.751,2.7900,0.4741,0
1302,49.785,3.2060,0.5686,0
1303,49.819,3.2260,0.6585,0
1304,49.852,3.2240,0.7374,0
1305,49.889,1.6780,0.6482,0
1306,49.927,2.2440,0.6215,0
1307,49.958,2.2960,0.5952,0
1308,49.992,1.8900,0.5425,0
1309,50.027,1.5160,0.4568,0
1310,50.061,1.2020,0.3350,0
1311,50.096,1.4000,0.2516,0
1312,50.130,0.8920,0.1354,0
1313,50.165,0.7320,0.0080,0
1314,50.199,1.8000,-0.0066,0
1315,50.237,1.6980,-0.0157,0
1316,50.271,1.9240,0.0065,0
1317,50.306,1.8820,0.0045,0
1318,50.341,1.6820,-0.0119,0
1319,50.375,1.5220,-0.0301,0
1320,50.409,1.4160,-0.0704,0
1321,50.444,0.9720,-0.1537,0
1322,50.478,0.7640,-0.2345,0
1323,50.512,1.0180,-0.2889,0
1324,50.546,1.3640,-0.3101,0
1325,50.584,2.0200,-0.2482,0
1326,50.618,0.6720,-0.3222,0
1327,50.652,1.5100,-0.3184,0
1328,50.685,1.8300,-0.2881,0
1329,50.719,1.9640,-0.2233,0
1330,50.752,2.4180,-0.1275,0
1331,50.786,2.4920,-0.0512,0
1332,50.819,2.3580,0.0226,0
1333,50.852,2.2280,0.0778,0
1334,50.885,1.8440,0.0678,0
1335,50.922,1.5560,0.0378,0
1336,50.955,1.4060,0.0067,0
1337,50.988,1.2880,-0.0479,0
1338,51.023,1.1160,-0.1147,0
1339,51.057,0.6220,-0.2082,0
1340,51.091,0.0260,-0.3581,0
1341,51.126,0.0000,-0.5054,0
1342,51.160,0.1060,-0.6133,0
1343,51.194,0.0000,-0.7119,0
1344,51.228,0.6180,-0.7491,0
1345,51.266,1.9880,-0.6434,0
1346,51.300,2.5280,-0.4764,0
1347,51.335,2.1460,-0.3649,0
1348,51.370,1.6200,-0.3313,0
1349,51.405,1.7700,-0.2841,0
1350,51.441,1.7440,-0.2377,0
1351,51.475,1.8020,-0.1953,0
1352,51.510,1.8200,-0.1591,0
1353,51.544,1.8320,-0.1189,0
1354,51.579,2.0460,-0.0629,0
1355,51.616,2.2340,-0.0000,0
1356,51.650,2.3420,0.0723,0
1357,51.684,2.3660,0.1412,0
1358,51.718,2.2060,0.1798,0
1359,51.751,1.8800,0.1823,0
1360,51.785,1.5080,0.1503,0
1361,51.818,1.1080,0.0762,0
1362,51.851,0.7100,-0.0318,0
1363,51.885,0.2740,-0.1669,0
1364,51.918,0.0000,-0.3163,0
1365,51.955,0.0000,-0.4527,0
1366,51.990,0.0000,-0.5683,0
1367,52.029,0.0000,-0.6666,0
1368,52.064,0.0000,-0.7569,0
1369,52.099,0.0000,-0.8344,0
1370,52.134,0.0000,-0.8970,0
1371,52.168,1.2180,-0.8340,0
1372,52.203,3.2300,-0.5779,0
1373,52.238,3.2320,-0.3312,0
1374,52.272,3.2320,-0.1067,0
1375,52.311,3.2340,0.0705,0
1376,52.346,3.2340,0.2335,0
1377,52.380,3.2320,0.3917,0
1378,52.415,3.2320,0.5154,0
1379,52.449,3.2300,0.6185,0
1380,52.483,3.2220,0.7237,0
1381,52.517,3.2180,0.8095,0
1382,52.551,3.2160,0.8715,0
1383,52.585,3.2020,0.9347,0
1384,52.619,2.7180,0.9449,0
1385,52.655,1.6180,0.8299,0
1386,52.690,0.0000,0.5653,0
1387,52.725,1.3440,0.4617,0
1388,52.760,1.9920,0.4247,0
1389,52.795,3.2120,0.5311,0
1390,52.829,3.2260,0.6307,0
1391,52.865,3.2340,0.7081,0
1392,52.901,3.2320,0.7759,0
1393,52.936,2.2940,0.7506,0
1394,52.971,1.6480,0.6547,0
1395,53.008,1.6520,0.5559,0
1396,53.044,1.8380,0.4954,0
1397,53.079,2.3520,0.4984,0
1398,53.114,2.6900,0.5239,0
1399,53.148,0.0000,0.2867,0
1400,53.181,0.0000,0.0776,0
1401,53.215,0.0460,-0.1332,0
1402,53.250,1.6300,-0.1460,0
1403,53.288,1.6400,-0.1335,0
1404,53.321,1.6340,-0.1367,0
1405,53.359,2.6180,-0.0549,0
1406,53.393,1.4240,-0.0771,0
1407,53.428,2.7220,0.0342,0
1408,53.462,3.2260,0.1517,0
1409,53.496,3.2320,0.2841,0
1410,53.530,3.2340,0.4156,0
1411,53.564,3.2340,0.4963,0
1412,53.599,3.2340,0.5730,0
1413,53.633,3.2320,0.6666,0
1414,53.666,3.2340,0.7261,0
1415,53.704,3.2340,0.7654,0
1416,53.738,3.2320,0.8250,0
1417,53.773,1.4820,0.6994,0
1418,53.808,1.6260,0.5748,0
1419,53.842,1.6340,0.4684,0
1420,53.877,3.1500,0.5452,0
1421,53.912,3.2300,0.6074,0
1422,53.947,3.2340,0.6627,0
1423,53.982,3.2320,0.7210,0
1424,54.017,3.2340,0.7636,0
1425,54.054,3.2320,0.7939,0
1426,54.092,3.2340,0.8293,0
1427,54.126,3.2340,0.8580,0
1428,54.161,3.2340,0.8730,0
1429,54.195,3.2320,0.8902,0
1430,54.230,1.7500,0.7626,0
1431,54.265,1.7080,0.6321,0
1432,54.301,1.7060,0.5046,0
1433,54.336,3.2320,0.5578,0
1434,54.370,1.8680,0.4744,0
1435,54.407,1.4360,0.3499,0
1436,54.442,1.5260,0.2344,0
1437,54.476,3.2340,0.3106,0
1438,54.511,3.2340,0.3891,0
1439,54.544,0.0000,0.0000,1
1440,54.577,0.0000,0.0000,1
1441,54.609,0.0000,0.0000,1
1442,54.640,0.0000,0.0000,1
1443,54.672,0.0000,0.0000,1
1444,54.705,0.0000,0.0000,1
1445,54.739,0.0000,0.0000,1
1446,54.771,0.0000,0.0000,1
1447,54.803,0.0000,0.0000,1
1448,54.835,0.0000,0.0000,1
1449,54.868,0.0000,0.0000,1
1450,54.900,0.0000,0.0000,1
1451,54.933,0.0000,0.0000,1
1452,54.966,0.0000,0.0000,1
1453,54.998,0.0000,0.0000,1
1454,55.031,0.0000,0.0000,1
1455,55.066,0.0000,0.0000,1
1456,55.099,0.0000,0.0000,1
1457,55.132,0.0000,0.0000,1
1458,55.165,0.0000,0.0000,1
1459,55.198,0.0000,0.0000,1
1460,55.231,0.0000,0.0000,1
1461,55.263,0.0000,0.0000,1
1462,55.296,0.0000,0.0000,1
1463,55.328,0.0000,0.0000,1
1464,55.360,0.0000,0.0000,1
1465,55.395,3.2320,0.4566,0
1466,55.430,3.2340,0.5051,0
1467,55.464,1.2060,0.3549,0
1468,55.499,1.4240,0.2423,0
1469,55.535,0.0000,-0.0214,0
1470,55.569,1.5880,-0.0856,0
1471,55.605,1.6260,-0.1326,0
1472,55.639,1.6300,-0.1730,0
1473,55.675,0.0000,-0.3730,0
1474,55.709,0.0000,-0.5510,0
1475,55.747,0.0000,-0.7166,0
1476,55.782,0.2980,-0.8242,0
1477,55.816,1.6340,-0.7815,0
1478,55.850,1.6420,-0.7446,0
1479,55.883,1.5860,-0.7060,0
1480,55.918,0.0000,-0.8291,0
1481,55.952,0.0000,-0.9486,0
1482,55.986,0.0000,-1.0570,0
1483,56.025,0.0000,-1.1363,0
1484,56.060,0.0000,-1.2079,0
1485,56.101,0.0000,-1.2791,0
1486,56.136,0.0000,-1.3297,0
1487,56.171,3.2300,-1.0513,0
1488,56.206,1.7260,-0.9523,0
1489,56.241,1.6660,-0.8453,0
1490,56.275,1.6560,-0.7776,0
1491,56.309,1.7180,-0.7160,0
1492,56.343,0.0000,-0.8005,0
1493,56.376,1.5580,-0.7366,0
1494,56.410,1.6300,-0.6995,0
1495,56.447,1.6400,-0.6187,0
1496,56.482,1.6440,-0.5468,0
1497,56.517,0.2720,-0.6573,0
1498,56.551,0.0000,-0.7595,0
1499,56.586,1.1020,-0.7296,0
1500,56.620,0.0000,-0.8338,0
1501,56.654,0.0000,-0.9122,0
1502,56.688,0.0000,-0.9753,0
1503,56.723,0.0000,-1.0422,0
1504,56.757,0.0000,-1.0952,0
1505,56.794,0.0000,-1.1301,0
1506,56.829,0.0000,-1.1679,0
1507,56.862,0.0000,-1.2021,0
1508,56.895,0.0000,-1.2197,0
1509,56.929,0.0000,-1.2358,0
1510,56.963,0.0000,-1.2549,0
1511,56.996,0.0000,-1.2622,0
1512,57.032,0.0000,-1.2636,0
1513,57.066,0.0000,-1.2701,0
1514,57.101,0.0000,-1.2711,0
1515,57.138,0.0000,-1.2636,0
1516,57.172,0.5180,-1.2092,0
1517,57.207,1.3280,-1.0798,0
1518,57.242,1.6820,-0.9162,0
1519,57.275,1.7540,-0.7613,0
1520,57.308,1.6560,-0.6415,0
1521,57.341,1.6260,-0.5336,0
1522,57.374,1.5220,-0.4430,0
1523,57.408,1.3880,-0.3821,0
1524,57.441,2.0160,-0.2676,0
1525,57.478,2.1920,-0.1412,0
1526,57.512,2.6860,0.0224,0
1527,57.546,3.2060,0.2118,0
1528,57.581,3.2260,0.3871,0
1529,57.616,3.2300,0.5476,0
1530,57.650,3.2320,0.6788,0
1531,57.685,3.2320,0.7931,0
1532,57.720,3.2300,0.9007,0
1533,57.754,3.2180,0.9877,0
1534,57.788,2.4620,0.9834,0
1535,57.825,2.0180,0.9391,0
1536,57.860,2.7800,0.9658,0
1537,57.895,2.9840,1.0051,0
1538,57.930,3.0540,1.0603,0
1539,57.964,3.0560,1.1021,0
1540,57.999,3.1040,1.1309,0
1541,58.033,3.0560,1.1601,0
1542,58.068,2.8620,1.1681,0
1543,58.102,2.7760,1.1515,0
1544,58.137,2.7720,1.1364,0
1545,58.174,2.5500,1.1085,0
1546,58.209,2.4520,1.0638,0
1547,58.243,2.3740,1.0086,0
1548,58.277,2.2940,0.9599,0
1549,58.310,2.1700,0.9015,0
1550,58.343,1.9040,0.8129,0
1551,58.377,1.8440,0.7318,0
1552,58.411,2.0620,0.6832,0
1553,58.445,1.9960,0.6266,0
1554,58.478,2.0280,0.5813,0
1555,58.513,0.9480,0.4374,0
1556,58.548,1.6580,0.3721,0
1557,58.582,2.0960,0.3498,0
1558,58.615,2.0940,0.3479,0
1559,58.652,2.0700,0.3425,0
1560,58.686,2.0380,0.3174,0
1561,58.719,1.9960,0.3005,0
1562,58.753,1.9120,0.2854,0
1563,58.787,1.7760,0.2434,0
1564,58.821,1.7920,0.2071,0
1565,58.857,1.6820,0.1762,0
1566,58.892,1.6560,0.1389,0
1567,58.926,1.5620,0.0886,0
1568,58.960,1.5360,0.0519,0
1569,58.995,1.6020,0.0261,0
1570,59.031,1.6840,0.0017,0
1571,59.065,1.4460,-0.0368,0
1572,59.100,1.6720,-0.0435,0
1573,59.135,1.7740,-0.0496,0
1574,59.169,1.7200,-0.0562,0
1575,59.205,1.3240,-0.0929,0
1576,59.242,0.6200,-0.2041,0
1577,59.275,1.3840,-0.2339,0
1578,59.310,1.5080,-0.2389,0
1579,59.344,1.5060,-0.2340,0
1580,59.377,1.5320,-0.2387,0
1581,59.411,1.5440,-0.2421,0
1582,59.445,1.5460,-0.2329,0
1583,59.478,1.4140,-0.2430,0
1584,59.512,1.4380,-0.2565,0
1585,59.549,1.7020,-0.2336,0
1586,59.584,1.7040,-0.2100,0
1587,59.618,1.6680,-0.1989,0
1588,59.652,1.6460,-0.1897,0
1589,59.687,1.6100,-0.1797,0
1590,59.721,1.5380,-0.1820,0
1591,59.756,1.3060,-0.2089,0
1592,59.790,1.1940,-0.2391,0
1593,59.825,1.4820,-0.2398,0
1594,59.859,1.4700,-0.2433,0
1595,59.896,1.6800,-0.2188,0
1596,59.931,0.4440,-0.3192,0
1597,59.966,1.3020,-0.3299,0
1598,60.001,1.9420,-0.2800,0
1599,60.035,1.9500,-0.2159,0
1600,60.070,1.8860,-0.1665,0
1601,60.103,1.8220,-0.1450,0
1602,60.138,1.8160,-0.1166,0
1603,60.172,1.6240,-0.1019,0
1604,60.207,1.4780,-0.1173,0
1605,60.244,1.4520,-0.1346,0
1606,60.279,1.5280,-0.1298,0
1607,60.314,1.6300,-0.1214,0
1608,60.348,1.6460,-0.1186,0
1609,60.383,1.7040,-0.1000,0
1610,60.417,1.7180,-0.0818,0
1611,60.451,1.7440,-0.0719,0
1612,60.486,1.4460,-0.0869,0
1613,60.520,1.6360,-0.0772,0
1614,60.554,1.7240,-0.0693,0
1615,60.591,1.5040,-0.0800,0
1616,60.625,1.5020,-0.0829,0
1617,60.659,0.0720,-0.2349,0
1618,60.693,1.1640,-0.2661,0
1619,60.727,1.7080,-0.2389,0
1620,60.761,1.7280,-0.1967,0
1621,60.795,1.6900,-0.1676,0
1622,60.828,1.6940,-0.1526,0
1623,60.862,1.7600,-0.1219,0
1624,60.896,1.6940,-0.0968,0
1625,60.932,1.7500,-0.0807,0
1626,60.966,1.7860,-0.0602,0
1627,61.001,1.8080,-0.0302,0
1628,61.035,1.7660,-0.0154,0
1629,61.070,1.7040,-0.0125,0
1630,61.105,1.5920,-0.0123,0
1631,61.140,1.5080,-0.0225,0
1632,61.175,1.4820,-0.0419,0
1633,61.210,1.4000,-0.0612,0
1634,61.245,1.3860,-0.0762,0
1635,61.283,1.8440,-0.0524,0
1636,61.318,1.8380,-0.0288,0
1637,61.352,1.8520,0.0032,0
1638,61.387,0.6920,-0.0908,0
1639,61.421,1.0920,-0.1415,0
1640,61.455,1.8060,-0.1140,0
1641,61.488,1.7780,-0.0809,0
1642,61.522,1.7240,-0.0586,0
1643,61.557,1.6240,-0.0582,0
1644,61.592,1.6420,-0.0496,0
1645,61.628,1.6580,-0.0363,0
1646,61.662,1.5860,-0.0394,0
1647,61.696,1.6400,-0.0359,0
1648,61.730,1.6980,-0.0210,0
1649,61.764,1.7560,-0.0058,0
1650,61.799,1.8220,0.0115,0
1651,61.834,1.7880,0.0290,0
1652,61.869,1.7440,0.0396,0
1653,61.903,1.6480,0.0342,0
1654,61.937,1.6340,0.0308,0
1655,61.975,1.2800,-0.0048,0
1656,62.010,1.3080,-0.0384,0
1657,62.047,1.7840,-0.0237,0
1658,62.081,1.8020,-0.0013,0
1659,62.117,1.8880,0.0292,0
1660,62.151,0.4980,-0.0880,0
1661,62.185,1.4560,-0.0982,0
1662,62.220,1.8700,-0.0692,0
1663,62.254,1.7720,-0.0403,0
1664,62.288,1.6880,-0.0242,0
1665,62.324,1.5960,-0.0311,0
1666,62.358,1.6180,-0.0278,0
1667,62.392,1.5080,-0.0297,0
1668,62.425,1.4560,-0.0464,0
1669,62.459,1.4780,-0.0596,0
1670,62.493,1.4860,-0.0613,0
1671,62.526,1.5000,-0.0658,0
1672,62.560,1.4740,-0.0775,0
1673,62.593,1.4600,-0.0818,0
1674,62.626,1.4880,-0.0825,0
1675,62.668,1.7580,-0.0631,0
1676,62.702,1.6840,-0.0484,0
1677,62.737,1.4180,-0.0558,0
1678,62.771,1.6180,-0.0517,0
1679,62.806,1.5460,-0.0567,0
1680,62.840,1.4780,-0.0568,0
1681,62.875,1.1200,-0.0976,0
1682,62.909,0.8240,-0.1706,0
1683,62.944,1.6640,-0.1466,0
1684,62.979,1.8180,-0.1063,0
1685,63.016,1.9380,-0.0577,0
1686,63.055,1.6400,-0.0461,0
1687,63.089,1.6400,-0.0352,0
1688,63.122,1.5860,-0.0320,0
1689,63.156,1.4560,-0.0419,0
1690,63.189,1.4680,-0.0491,0
1691,63.222,1.4820,-0.0554,0
1692,63.256,1.4440,-0.0637,0
1693,63.290,1.4220,-0.0724,0
1694,63.323,1.4320,-0.0805,0
1695,63.359,1.4120,-0.0893,0
1696,63.392,1.4540,-0.0914,0
1697,63.426,1.4820,-0.0913,0
1698,63.459,1.1800,-0.1208,0
1699,63.492,1.3660,-0.1280,0
1700,63.526,1.5100,-0.1224,0
1701,63.559,1.5260,-0.1123,0
1702,63.592,1.6220,-0.0922,0
1703,63.626,0.1680,-0.2202,0
1704,63.659,1.0200,-0.2521,0
1705,63.695,1.8380,-0.2060,0
1706,63.729,1.8660,-0.1452,0
1707,63.764,1.9400,-0.0802,0
1708,63.798,1.9200,-0.0418,0
1709,63.833,1.9760,0.0049,0
1710,63.867,1.8600,0.0459,0
1711,63.902,1.6380,0.0472,0
1712,63.937,1.5840,0.0388,0
1713,63.972,1.5080,0.0357,0
1714,64.007,1.4600,0.0243,0
1715,64.044,1.6600,0.0245,0
1716,64.080,1.7940,0.0469,0
1717,64.115,1.8200,0.0744,0
1718,64.149,1.8560,0.0921,0
1719,64.183,1.8020,0.1036,0
1720,64.217,1.5640,0.0986,0
1721,64.251,1.7560,0.1054,0
1722,64.285,1.8000,0.1106,0
1723,64.318,1.7500,0.1216,0
1724,64.352,1.5000,0.1045,0
1725,64.389,0.7480,0.0050,0
1726,64.423,1.5860,0.0028,0
1727,64.458,1.7080,0.0155,0
1728,64.493,1.7600,0.0356,0
1729,64.527,1.7980,0.0535,0
1730,64.562,1.9000,0.0785,0
1731,64.596,1.9520,0.1096,0
1732,64.630,1.7900,0.1203,0
1733,64.665,1.8020,0.1273,0
1734,64.699,1.7900,0.1331,0
1735,64.736,1.5540,0.1174,0
1736,64.770,1.5140,0.0961,0
1737,64.804,1.4980,0.0728,0
1738,64.837,1.4780,0.0542,0
1739,64.871,1.5520,0.0449,0
1740,64.904,1.5500,0.0327,0
1741,64.937,1.5260,0.0226,0
1742,64.971,1.2120,-0.0158,0
1743,65.004,1.3600,-0.0398,0
1744,65.039,1.5040,-0.0478,0
1745,65.076,1.6240,-0.0364,0
1746,65.111,1.7340,-0.0166,0
1747,65.145,0.2420,-0.1492,0
1748,65.179,1.3220,-0.1602,0
1749,65.213,1.9440,-0.1160,0
1750,65.248,1.9960,-0.0550,0
1751,65.282,1.9260,-0.0050,0
1752,65.317,1.9580,0.0258,0
1753,65.351,1.8700,0.0506,0
1754,65.386,1.6240,0.0595,0
1755,65.424,1.4560,0.0369,0
1756,65.459,1.5740,0.0236,0
1757,65.494,1.6380,0.0323,0
1758,65.528,1.7480,0.0479,0
1759,65.563,1.7940,0.0559,0
1760,65.597,1.7880,0.0719,0
1761,65.631,1.8280,0.0938,0
1762,65.665,1.8240,0.1015,0
1763,65.699,1.7860,0.1076,0
1764,65.733,1.7860,0.1206,0
1765,65.770,1.2280,0.0694,0
1766,65.805,1.3160,0.0284,0
1767,65.840,1.4520,0.0101,0
1768,65.875,1.5520,0.0061,0
1769,65.909,1.6600,0.0092,0
1770,65.944,0.3260,-0.1173,0
1771,65.979,1.6020,-0.1040,0
1772,66.014,1.9980,-0.0632,0
1773,66.051,1.8520,-0.0218,0
1774,66.086,1.7220,0.0028,0
1775,66.122,1.5900,-0.0083,0
1776,66.156,1.6200,-0.0059,0
1777,66.190,1.4520,-0.0089,0
1778,66.224,1.4420,-0.0277,0
1779,66.257,1.5100,-0.0405,0
1780,66.291,1.5200,-0.0352,0
1781,66.324,1.5060,-0.0376,0
1782,66.358,1.5080,-0.0501,0
1783,66.391,1.5800,-0.0425,0
1784,66.426,1.6140,-0.0293,0
1785,66.462,1.7900,-0.0117,0
1786,66.496,1.7980,0.0093,0
1787,66.531,1.7820,0.0355,0
1788,66.570,1.2800,-0.0003,0
1789,66.603,1.5960,-0.0053,0
1790,66.638,1.5240,-0.0093,0
1791,66.673,1.5260,-0.0103,0
1792,66.708,0.6820,-0.1025,0
1793,66.741,1.3440,-0.1184,0
1794,66.776,1.8220,-0.0838,0
1795,66.814,1.9380,-0.0352,0
1796,66.849,1.8680,0.0006,0
1797,66.884,1.7860,0.0193,0
1798,66.918,1.7640,0.0358,0
1799,66.952,1.6580,0.0420,0
1800,66.985,1.4980,0.0280,0
1801,67.019,1.5240,0.0169,0
1802,67.055,1.4500,0.0025,0
1803,67.090,1.4600,-0.0096,0
1804,67.126,1.5820,-0.0112,0
1805,67.163,1.7580,0.0071,0
1806,67.197,1.7960,0.0299,0
1807,67.231,1.7660,0.0448,0
1808,67.265,1.6900,0.0494,0
1809,67.299,1.5840,0.0450,0
1810,67.332,1.4860,0.0301,0
1811,67.366,1.8060,0.0459,0
1812,67.399,1.7760,0.0594,0
1813,67.433,1.7460,0.0718,0
1814,67.466,1.2880,0.0329,0
1815,67.504,1.0300,-0.0288,0
1816,67.538,1.6200,-0.0250,0
1817,67.571,1.5960,-0.0229,0
1818,67.605,1.5620,-0.0198,0
1819,67.640,1.5980,-0.0174,0
1820,67.674,1.6760,-0.0096,0
1821,67.709,1.7580,0.0106,0
1822,67.743,1.7140,0.0238,0
1823,67.777,1.7040,0.0305,0
1824,67.811,1.7180,0.0398,0
1825,67.847,1.8280,0.0610,0
1826,67.881,1.7880,0.0728,0
1827,67.915,1.7340,0.0783,0
1828,67.949,1.6960,0.0810,0
1829,67.982,1.7220,0.0837,0
1830,68.021,1.3880,0.0526,0
1831,68.056,1.4480,0.0323,0
1832,68.090,1.2220,-0.0110,0
1833,68.125,1.6500,-0.0068,0
1834,68.159,1.7960,0.0131,0
1835,68.195,1.9120,0.0449,0
1836,68.229,1.7420,0.0546,0
1837,68.263,0.6200,-0.0480,0
1838,68.297,1.7940,-0.0263,0
1839,68.331,2.0460,0.0132,0
1840,68.364,2.0320,0.0638,0
1841,68.397,2.0260,0.1040,0
1842,68.430,1.9920,0.1225,0
1843,68.463,2.0260,0.1529,0
1844,68.495,1.9080,0.1733,0
1845,68.532,1.7360,0.1609,0
1846,68.565,1.7240,0.1497,0
1847,68.599,1.7420,0.1508,0
1848,68.634,1.6280,0.1335,0
1849,68.668,1.5440,0.1050,0
1850,68.702,1.5120,0.0840,0
1851,68.736,1.4480,0.0581,0
1852,68.770,1.4180,0.0254,0
1853,68.804,1.4120,0.0002,0
1854,68.838,1.4520,-0.0149,0
1855,68.875,1.4540,-0.0336,0
1856,68.910,1.4900,-0.0458,0
1857,68.943,1.7760,-0.0236,0
1858,68.977,1.8280,-0.0011,0
1859,69.010,1.8620,0.0219,0
1860,69.049,0.4740,-0.0912,0
1861,69.082,1.2020,-0.1247,0
1862,69.115,1.9260,-0.0935,0
1863,69.148,1.9540,-0.0429,0
1864,69.181,1.9580,0.0067,0
1865,69.217,1.7380,0.0084,0
1866,69.251,1.6800,0.0115,0
1867,69.285,1.6260,0.0209,0
1868,69.319,1.4560,-0.0019,0
1869,69.353,1.4420,-0.0268,0
1870,69.387,1.4760,-0.0320,0
1871,69.421,1.4940,-0.0396,0
1872,69.455,1.4620,-0.0581,0
1873,69.488,1.4420,-0.0668,0
1874,69.522,1.4900,-0.0676,0
1875,69.557,1.6080,-0.0664,0
1876,69.592,1.7020,-0.0513,0
1877,69.625,1.6960,-0.0310,0
1878,69.658,1.6820,-0.0221,0
1879,69.692,1.6520,-0.0195,0
1880,69.725,1.4200,-0.0317,0
1881,69.758,1.7480,-0.0141,0
1882,69.792,1.7360,-0.0060,0
1883,69.825,1.7460,0.0123,0
1884,69.858,1.4780,0.0019,0
1885,69.894,1.0800,-0.0561,0
1886,69.927,1.9120,-0.0233,0
1887,69.960,2.0120,0.0216,0
1888,69.994,2.0000,0.0626,0
1889,70.028,2.0140,0.0939,0
1890,70.062,2.0080,0.1218,0
1891,70.096,1.9980,0.1503,0
1892,70.130,1.8260,0.1541,0
1893,70.163,1.8220,0.1541,0
1894,70.196,1.8480,0.1599,0
1895,70.232,1.6960,0.1502,0
1896,70.266,1.6520,0.1333,0
1897,70.300,1.5640,0.1098,0
1898,70.334,1.5440,0.0894,0
1899,70.368,1.4760,0.0619,0
1900,70.402,1.4800,0.0369,0
1901,70.436,1.4360,0.0128,0
1902,70.469,1.4660,-0.0061,0
1903,70.502,1.1780,-0.0531,0
1904,70.536,1.3040,-0.0810,0
1905,70.573,1.5920,-0.0783,0
1906,70.607,1.6580,-0.0676,0
1907,70.641,1.7720,-0.0439,0
1908,70.674,0.3440,-0.1651,0
1909,70.707,1.4640,-0.1665,0
1910,70.740,1.7660,-0.1433,0
1911,70.773,1.7200,-0.1081,0
1912,70.807,1.7440,-0.0779,0
1913,70.840,1.7340,-0.0676,0
1914,70.873,1.7120,-0.0481,0
1915,70.908,1.8160,-0.0141,0
1916,70.942,1.7380,-0.0067,0
1917,70.975,1.7320,0.0029,0
1918,71.009,1.7660,0.0253,0
1919,71.043,1.7920,0.0381,0
1920,71.077,1.8040,0.0469,0
1921,71.110,1.7920,0.0643,0
1922,71.143,1.7580,0.0731,0
1923,71.176,1.7540,0.0721,0
1924,71.210,1.7940,0.0822,0
1925,71.246,1.8080,0.0957,0
1926,71.279,1.6400,0.0828,0
1927,71.312,1.5840,0.0672,0
1928,71.345,1.8340,0.0825,0
1929,71.378,1.8500,0.0936,0
1930,71.410,1.8700,0.1056,0
1931,71.443,1.5180,0.0848,0
1932,71.476,0.9800,0.0104,0
1933,71.509,1.8600,0.0248,0
1934,71.542,1.9620,0.0515,0
1935,71.578,2.0400,0.0945,0
1936,71.611,1.9840,0.1173,0
1937,71.645,1.9200,0.1263,0
1938,71.678,2.0340,0.1557,0
1939,71.711,1.8300,0.1590,0
1940,71.745,1.7540,0.1465,0
1941,71.778,1.8200,0.1460,0
1942,71.811,1.8360,0.1506,0
1943,71.845,1.8360,0.1490,0
1944,71.878,1.8620,0.1497,0
1945,71.914,1.7460,0.1437,0
1946,71.948,1.6820,0.1288,0
1947,71.982,1.6180,0.1051,0
1948,72.022,1.5620,0.0828,0
1949,72.057,1.6800,0.0749,0
1950,72.090,1.4080,0.0368,0
1951,72.123,1.5380,0.0184,0
1952,72.156,1.6760,0.0159,0
1953,72.190,1.6560,0.0109,0
1954,72.223,1.7600,0.0182,0
1955,72.258,0.3420,-0.1145,0
1956,72.292,1.3220,-0.1398,0
1957,72.325,1.9640,-0.1068,0
1958,72.359,2.0020,-0.0536,0
1959,72.392,1.9640,-0.0089,0
1960,72.425,1.9540,0.0109,0
1961,72.459,1.9980,0.0419,0
1962,72.492,1.8920,0.0702,0
1963,72.526,1.7840,0.0696,0
1964,72.559,1.8420,0.0715,0
1965,72.595,1.8220,0.0856,0
1966,72.629,1.7720,0.0876,0
1967,72.663,1.7340,0.0753,0
1968,72.697,1.6780,0.0689,0
1969,72.730,1.6740,0.0655,0
1970,72.764,1.6460,0.0483,0
1971,72.798,1.6140,0.0340,0
1972,72.831,1.6060,0.0280,0
1973,72.865,1.5800,0.0117,0
1974,72.898,1.4260,-0.0198,0
1975,72.934,1.2600,-0.0558,0
1976,72.968,1.4520,-0.0735,0
1977,73.001,1.4740,-0.0922,0
1978,73.035,1.5720,-0.0894,0
1979,73.068,0.5680,-0.1853,0
1980,73.102,0.9520,-0.2425,0
1981,73.136,1.6260,-0.2284,0
1982,73.170,1.6600,-0.1958,0
1983,73.204,1.6460,-0.1693,0
1984,73.237,1.6500,-0.1589,0
1985,73.273,1.8420,-0.1216,0
1986,73.307,1.8540,-0.0795,0
1987,73.340,1.6980,-0.0684,0
1988,73.374,1.7680,-0.0525,0
1989,73.407,1.7260,-0.0335,0
1990,73.440,1.7500,-0.0182,0
1991,73.473,1.6880,-0.0169,0
1992,73.506,1.6880,-0.0086,0
1993,73.539,1.6240,-0.0067,0
1994,73.572,1.6040,-0.0141,0
1995,73.608,1.7900,0.0004,0
1996,73.641,1.8120,0.0205,0
1997,73.675,1.7900,0.0323,0
1998,73.709,1.8340,0.0447,0
1999,73.743,1.8380,0.0606,0
2000,73.777,1.5500,0.0460,0
2001,73.811,1.6400,0.0369,0
2002,73.846,1.7900,0.0442,0
2003,73.880,1.7380,0.0508,0
2004,73.914,1.6060,0.0412,0
2005,73.950,0.2540,-0.1043,0
2006,73.984,1.4380,-0.1169,0
2007,74.018,1.6920,-0.1080,0
2008,74.054,1.7760,-0.0761,0
2009,74.088,1.7460,-0.0526,0
2010,74.123,1.8860,-0.0303,0
2011,74.157,1.9200,0.0018,0
2012,74.191,1.8300,0.0284,0
2013,74.225,1.8320,0.0397,0
2014,74.258,1.8520,0.0515,0
2015,74.294,1.8580,0.0736,0
2016,74.329,1.7960,0.0806,0
2017,74.363,1.7120,0.0718,0
2018,74.398,1.6240,0.0639,0
2019,74.432,1.5580,0.0502,0
2020,74.466,1.5040,0.0239,0
2021,74.500,1.4800,0.0029,0
2022,74.534,1.4800,-0.0110,0
2023,74.569,1.4820,-0.0301,0
2024,74.603,1.2020,-0.0744,0
2025,74.639,1.4920,-0.0793,0
2026,74.672,1.7060,-0.0675,0
2027,74.706,1.7700,-0.0494,0
2028,74.740,1.8080,-0.0236,0
2029,74.773,0.4540,-0.1375,0
2030,74.807,1.5540,-0.1367,0
2031,74.840,1.8600,-0.1077,0
2032,74.873,1.8120,-0.0678,0
2033,74.906,1.7220,-0.0478,0
2034,74.939,1.7360,-0.0426,0
2035,74.975,1.9060,-0.0081,0
2036,75.008,1.8320,0.0206,0
2037,75.043,1.7540,0.0245,0
2038,75.081,1.5740,0.0125,0
2039,75.116,1.5180,0.0061,0
2040,75.149,1.4820,-0.0127,0
2041,75.183,1.4320,-0.0379,0
2042,75.217,1.4500,-0.0479,0
2043,75.251,1.4660,-0.0582,0
2044,75.285,1.4740,-0.0737,0
2045,75.321,1.6140,-0.0662,0
2046,75.356,1.6620,-0.0519,0
2047,75.389,1.6440,-0.0477,0
2048,75.423,1.5100,-0.0553,0
2049,75.456,1.7880,-0.0301,0
2050,75.490,1.8320,-0.0082,0
2051,75.523,1.7900,0.0084,0
2052,75.556,1.5240,0.0007,0
2053,75.590,0.7740,-0.0843,0
2054,75.623,1.7560,-0.0682,0
2055,75.660,2.0040,-0.0264,0
2056,75.694,1.9360,0.0170,0
2057,75.729,1.8680,0.0401,0
2058,75.764,1.7840,0.0445,0
2059,75.798,1.7100,0.0522,0
2060,75.832,1.5300,0.0407,0
2061,75.866,1.4940,0.0159,0
2062,75.900,1.4760,-0.0026,0
2063,75.935,1.3840,-0.0214,0
2064,75.969,1.4940,-0.0362,0
2065,76.005,1.7220,-0.0279,0
2066,76.041,1.8300,0.0005,0
2067,76.074,1.8380,0.0238,0
2068,76.108,1.8500,0.0385,0
2069,76.141,1.8320,0.0562,0
2070,76.174,1.8380,0.0747,0
2071,76.207,1.5260,0.0529,0
2072,76.240,1.6680,0.0487,0
2073,76.274,1.8460,0.0658,0
2074,76.307,1.8240,0.0773,0
2075,76.343,1.9500,0.0989,0
2076,76.377,0.4380,-0.0286,0
2077,76.411,1.2380,-0.0664,0
2078,76.446,1.8020,-0.0558,0
2079,76.480,1.7720,-0.0298,0
2080,76.514,1.7520,-0.0045,0
2081,76.548,1.7100,-0.0067,0
2082,76.581,1.7280,0.0010,0
2083,76.615,1.6740,0.0158,0
2084,76.650,1.4900,-0.0040,0
2085,76.686,1.5600,-0.0191,0
2086,76.720,1.6260,-0.0113,0
2087,76.754,1.6340,-0.0074,0
2088,76.788,1.6560,-0.0120,0
2089,76.821,1.7000,-0.0023,0
2090,76.854,1.6480,0.0053,0
2091,76.888,1.6280,-0.0007,0
2092,76.921,1.6180,-0.0049,0
2093,76.954,1.5860,-0.0035,0
2094,76.987,1.5940,-0.0084,0
2095,77.025,1.5060,-0.0249,0
2096,77.060,1.6900,-0.0133,0
2097,77.094,1.8000,0.0060,0
2098,77.128,1.7580,0.0147,0
2099,77.162,1.7960,0.0310,0
2100,77.196,0.2100,-0.1095,0
2101,77.230,1.1080,-0.1545,0
2102,77.264,1.6860,-0.1447,0
2103,77.298,1.6660,-0.1146,0
2104,77.333,1.6380,-0.0919,0
2105,77.369,1.7020,-0.0859,0
2106,77.403,1.7760,-0.0600,0
2107,77.437,1.7320,-0.0298,0
2108,77.471,1.6860,-0.0257,0
2109,77.504,1.6740,-0.0235,0
2110,77.537,1.7100,-0.0020,0
2111,77.570,1.6660,0.0035,0
2112,77.603,1.6360,-0.0034,0
2113,77.637,1.6260,0.0024,0
2114,77.670,1.6320,0.0083,0
2115,77.707,1.8500,0.0230,0
2116,77.741,1.8340,0.0418,0
2117,77.776,1.8580,0.0690,0
2118,77.810,1.8100,0.0764,0
2119,77.844,1.7060,0.0721,0
2120,77.879,1.4400,0.0522,0
2121,77.913,1.6560,0.0484,0
2122,77.950,1.5120,0.0242,0
2123,77.980,1.5960,0.0231,0
2124,78.013,1.3960,0.0003,0
2125,78.051,0.7480,-0.0928,0
2126,78.085,1.5520,-0.0922,0
2127,78.119,1.7520,-0.0693,0
2128,78.153,1.7600,-0.0447,0
2129,78.187,1.8020,-0.0213,0
2130,78.221,1.8880,0.0063,0
2131,78.256,1.9360,0.0392,0
2132,78.290,1.8260,0.0573,0
2133,78.325,1.8080,0.0682,0
2134,78.359,1.8500,0.0825,0
2135,78.395,1.6460,0.0775,0
2136,78.430,1.5740,0.0634,0
2137,78.463,1.5520,0.0458,0
2138,78.498,1.4200,0.0203,0
2139,78.532,1.4320,-0.0008,0
2140,78.566,1.4360,-0.0232,0
2141,78.600,1.4120,-0.0429,0
2142,78.634,1.4720,-0.0519,0
2143,78.668,1.1840,-0.0915,0
2144,78.701,1.4140,-0.1041,0
2145,78.738,1.7340,-0.0823,0
2146,78.771,1.7080,-0.0628,0
2147,78.805,1.7040,-0.0456,0
2148,78.838,0.3600,-0.1649,0
2149,78.871,1.5100,-0.1597,0
2150,78.904,1.8860,-0.1233,0
2151,78.938,1.9020,-0.0717,0
2152,78.971,1.8640,-0.0317,0
2153,79.004,1.7920,-0.0182,0
2154,79.039,1.9080,0.0150,0
2155,79.074,1.8820,0.0489,0
2156,79.109,1.7820,0.0568,0
2157,79.143,1.8080,0.0662,0
2158,79.178,1.7260,0.0764,0
2159,79.212,1.6560,0.0724,0
2160,79.245,1.6560,0.0622,0
2161,79.279,1.6040,0.0565,0
2162,79.313,1.5460,0.0465,0
2163,79.347,1.4820,0.0225,0
2164,79.382,1.4740,0.0041,0
2165,79.419,1.5620,0.0017,0
2166,79.452,1.5640,-0.0064,0
2167,79.486,1.4180,-0.0280,0
2168,79.520,1.6560,-0.0184,0
2169,79.553,1.6740,-0.0118,0
2170,79.586,1.6960,-0.0040,0
2171,79.620,1.5300,-0.0098,0
2172,79.653,0.3400,-0.1337,0
2173,79.686,1.5120,-0.1350,0
2174,79.719,1.7980,-0.1095,0
2175,79.756,2.0160,-0.0459,0
2176,79.790,1.9840,0.0005,0
2177,79.824,1.9620,0.0276,0
2178,79.859,1.9600,0.0637,0
2179,79.893,1.7720,0.0800,0
2180,79.928,1.6540,0.0691,0
2181,79.961,1.6300,0.0600,0
2182,79.995,1.6060,0.0588,0
2183,80.030,1.4980,0.0385,0
2184,80.065,1.4380,0.0108,0
2185,80.103,1.6020,0.0111,0
2186,80.137,1.7220,0.0215,0
2187,80.171,1.7720,0.0305,0
2188,80.204,1.7540,0.0423,0
2189,80.237,1.7500,0.0539,0
2190,80.270,1.7160,0.0543,0
2191,80.304,1.4320,0.0289,0
2192,80.337,1.6800,0.0340,0
2193,80.370,1.7440,0.0389,0
2194,80.403,1.6960,0.0415,0
2195,80.439,1.7280,0.0507,0
2196,80.473,0.5840,-0.0588,0
2197,80.508,1.7700,-0.0425,0
2198,80.542,1.9980,-0.0061,0
2199,80.577,1.9040,0.0322,0
2200,80.611,1.8320,0.0521,0
2201,80.645,1.7680,0.0522,0
2202,80.680,1.7160,0.0588,0
2203,80.714,1.4700,0.0427,0
2204,80.748,1.4280,0.0112,0
2205,80.785,1.6280,0.0061,0
2206,80.819,1.6580,0.0148,0
2207,80.853,1.6480,0.0146,0
2208,80.887,1.8140,0.0257,0
2209,80.922,1.8660,0.0500,0
2210,80.956,1.8720,0.0726,0
2211,80.990,1.8900,0.0857,0
2212,81.026,1.7720,0.0900,0
2213,81.061,1.6640,0.0878,0
2214,81.095,1.6000,0.0711,0
2215,81.132,1.2780,0.0241,0
2216,81.165,1.4800,0.0086,0
2217,81.199,1.5740,-0.0014,0
2218,81.233,1.5520,-0.0126,0
2219,81.267,1.3780,-0.0335,0
2220,81.301,0.3000,-0.1616,0
2221,81.334,1.4180,-0.1726,0
2222,81.367,1.7040,-0.1525,0
2223,81.400,1.6700,-0.1200,0
2224,81.434,1.6500,-0.1022,0
2225,81.470,1.8680,-0.0760,0
2226,81.504,1.8860,-0.0357,0
2227,81.538,1.8560,0.0001,0
2228,81.573,1.8100,0.0116,0
2229,81.608,1.8500,0.0315,0
2230,81.642,1.7880,0.0533,0
2231,81.676,1.7380,0.0563,0
2232,81.710,1.7420,0.0557,0
2233,81.744,1.6580,0.0585,0
2234,81.779,1.5860,0.0500,0
2235,81.815,1.4920,0.0238,0
2236,81.849,1.5280,0.0122,0
2237,81.883,1.4060,-0.0071,0
2238,81.917,1.3280,-0.0407,0
2239,81.950,1.5700,-0.0453,0
2240,81.983,1.5620,-0.0428,0
2241,82.017,1.6000,-0.0398,0
2242,82.052,1.0840,-0.0924,0
2243,82.086,1.3360,-0.1096,0
2244,82.121,1.9380,-0.0679,0
2245,82.157,1.9800,-0.0252,0
2246,82.192,1.8920,0.0109,0
2247,82.226,1.8280,0.0310,0
2248,82.260,1.7920,0.0409,0
2249,82.295,1.6820,0.0455,0
2250,82.329,1.4860,0.0294,0
2251,82.363,1.5020,0.0095,0
2252,82.396,1.4720,-0.0078,0
2253,82.430,1.4420,-0.0213,0
2254,82.463,1.3780,-0.0454,0
2255,82.500,1.4840,-0.0574,0
2256,82.533,1.5600,-0.0546,0
2257,82.567,1.5660,-0.0526,0
2258,82.600,1.5500,-0.0561,0
2259,82.634,1.5220,-0.0585,0
2260,82.667,1.2980,-0.0812,0
2261,82.700,1.4920,-0.0867,0
2262,82.733,1.5100,-0.0896,0
2263,82.766,1.5240,-0.0845,0
2264,82.799,1.3080,-0.1044,0
2265,82.836,0.7140,-0.1840,0
2266,82.872,1.8640,-0.1395,0
2267,82.902,1.8640,-0.0995,0
2268,82.936,1.9480,-0.0465,0
2269,82.966,1.7080,-0.0289,0
2270,82.999,1.6920,-0.0198,0
2271,83.033,1.7780,0.0023,0
2272,83.067,1.6900,0.0145,0
2273,83.101,1.6960,0.0205,0
2274,83.135,1.7480,0.0320,0
2275,83.172,1.9080,0.0621,0
2276,83.206,1.8880,0.0839,0
2277,83.240,1.8540,0.0988,0
2278,83.274,1.8620,0.1151,0
2279,83.307,1.8300,0.1250,0
2280,83.341,1.8140,0.1303,0
2281,83.374,1.7720,0.1321,0
2282,83.408,1.5060,0.1078,0
2283,83.442,1.7140,0.1036,0
2284,83.477,1.6780,0.0956,0
2285,83.509,1.7460,0.0998,0
2286,83.543,1.6480,0.0913,0
2287,83.577,0.1320,-0.0675,0
2288,83.611,1.3680,-0.0881,0
2289,83.644,1.7500,-0.0761,0
2290,83.680,1.6380,-0.0573,0
2291,83.715,1.6500,-0.0407,0
2292,83.750,1.6900,-0.0394,0
2293,83.787,1.9400,-0.0022,0
2294,83.819,1.7880,0.0258,0
2295,83.858,1.7360,0.0310,0
2296,83.896,1.4880,0.0089,0
2297,83.930,1.4980,0.0035,0
2298,83.964,1.4760,-0.0114,0
2299,83.998,1.4780,-0.0315,0
2300,84.033,1.5280,-0.0330,0
2301,84.067,1.5500,-0.0321,0
2302,84.101,1.6100,-0.0349,0
2303,84.136,1.7360,-0.0190,0
2304,84.172,1.6380,-0.0085,0
2305,84.209,1.7360,0.0023,0
2306,84.244,1.5740,-0.0054,0
2307,84.275,1.6720,0.0060,0
2308,84.310,1.1620,-0.0390,0
2309,84.343,0.8560,-0.1139,0
2310,84.379,1.6380,-0.1013,0
2311,84.416,1.7260,-0.0782,0
2312,84.451,1.8400,-0.0422,0
2313,84.488,1.9900,0.0001,0
2314,84.523,1.9720,0.0359,0
2315,84.560,1.6940,0.0451,0
2316,84.594,1.5280,0.0328,0
2317,84.631,1.5120,0.0150,0
2318,84.670,1.8280,0.0354,0
2319,84.713,1.4660,0.0204,0
2320,84.751,1.6000,0.0160,0
2321,84.784,1.6140,0.0107,0
2322,84.820,1.8100,0.0320,0
2323,84.855,1.9240,0.0611,0
2324,84.890,1.6740,0.0587,0
2325,84.930,1.3720,0.0299,0
2326,84.968,1.7600,0.0405,0
2327,85.001,1.7940,0.0499,0
2328,85.037,1.9800,0.0837,0
2329,85.070,0.5760,-0.0248,0
2330,85.103,1.7460,-0.0146,0
2331,85.142,1.8320,-0.0014,0
2332,85.178,1.6960,0.0189,0
2333,85.212,1.6640,0.0249,0
2334,85.252,1.9140,0.0386,0
2335,85.294,1.6360,0.0411,0
2336,85.333,1.5940,0.0447,0
2337,85.370,1.8580,0.0516,0
2338,85.403,1.8920,0.0692,0
2339,85.437,1.8920,0.1023,0
2340,85.471,1.8820,0.1127,0
2341,85.509,1.6800,0.0962,0
2342,85.540,1.8160,0.1132,0
2343,85.581,1.5180,0.0916,0
2344,85.616,1.5440,0.0629,0
2345,85.653,1.6040,0.0541,0
2346,85.692,1.6720,0.0579,0
2347,85.727,1.5660,0.0388,0
2348,85.762,1.5660,0.0247,0
2349,85.796,0.5560,-0.0787,0
2350,85.834,1.3980,-0.0975,0
2351,85.864,1.6360,-0.0989,0
2352,85.899,1.7020,-0.0705,0
2353,85.933,1.7360,-0.0455,0
2354,85.968,1.8160,-0.0335,0
2355,86.003,1.9540,0.0050,0
2356,86.039,1.8880,0.0415,0
2357,86.073,1.7140,0.0394,0
2358,86.109,1.6360,0.0307,0
2359,86.143,1.5740,0.0299,0
2360,86.177,1.5460,0.0171,0
2361,86.211,1.5020,-0.0056,0
2362,86.244,1.4600,-0.0176,0
2363,86.279,1.4220,-0.0332,0
2364,86.312,1.4200,-0.0577,0
2365,86.349,1.5640,-0.0580,0
2366,86.383,1.4960,-0.0590,0
2367,86.417,1.4740,-0.0705,0
2368,86.451,1.8260,-0.0470,0
2369,86.486,1.8640,-0.0132,0
