sample_index,timestamp_seconds,raw_voltage,filtered_voltage,lead_off
0,5.288,0.0000,0.0000,1
1,5.726,0.0000,0.0000,1
2,5.907,0.0000,0.0000,1
3,5.955,0.0000,0.0000,1
4,6.451,0.0000,0.0000,1
5,6.695,0.0000,0.0000,1
6,7.071,0.0000,0.0000,1
7,7.096,0.0000,0.0000,1
8,7.174,0.0000,0.0000,1
9,7.220,3.2320,0.2560,0
10,7.248,0.0000,0.0000,1
11,7.316,0.0000,0.0000,1
12,7.341,0.0000,0.0000,1
13,7.366,0.0000,0.0000,1
14,7.392,0.0000,0.0000,1
15,7.423,0.0000,0.0000,1
16,7.449,0.0000,0.0000,1
17,7.474,0.0000,0.0000,1
18,7.501,0.0000,0.0000,1
19,7.526,0.0000,0.0000,1
20,7.552,0.0000,0.0000,1
21,7.578,0.0000,0.0000,1
22,7.603,3.2320,0.4968,0
23,7.632,0.0000,0.0000,1
24,7.657,0.0000,0.0000,1
25,7.687,3.2320,0.7361,0
26,7.714,0.0000,0.0000,1
27,7.740,0.0000,0.0000,1
28,7.766,0.0000,0.0000,1
29,7.792,0.0000,0.0000,1
30,7.818,0.0000,0.0000,1
31,7.845,0.0000,0.0000,1
32,7.870,0.0000,0.0000,1
33,7.897,0.0000,0.0000,1
34,7.922,0.0000,0.0000,1
35,7.952,0.0000,0.0000,1
36,7.977,0.0000,0.0000,1
37,8.003,3.2320,0.9344,0
38,8.031,0.0000,0.0000,1
39,8.058,0.0000,0.0000,1
40,8.084,0.0000,0.0000,1
41,8.111,0.0000,0.0000,1
42,8.137,3.2320,1.1071,0
43,8.165,0.0000,0.0000,1
44,8.192,0.0000,0.0000,1
45,8.221,0.0000,0.0000,1
46,8.247,0.0000,0.0000,1
47,8.273,0.0000,0.0000,1
48,8.300,0.0000,0.0000,1
49,8.327,0.0000,0.0000,1
50,8.354,0.0000,0.0000,1
51,8.380,0.0000,0.0000,1
52,8.406,0.0000,0.0000,1
53,8.433,0.0000,0.0000,1
54,8.459,0.0000,0.0000,1
55,8.489,0.0000,0.0000,1
56,8.516,0.0000,0.0000,1
57,8.544,0.0000,0.0000,1
58,8.570,0.0000,0.0000,1
59,8.597,0.0000,0.0000,1
60,8.623,0.0000,0.0000,1
61,8.649,0.0000,0.0000,1
62,8.676,0.0000,0.0000,1
63,8.702,0.0000,0.0000,1
64,8.729,0.0000,0.0000,1
65,8.757,0.0000,0.0000,1
66,8.784,0.0000,0.0000,1
67,8.812,0.0000,0.0000,1
68,8.837,0.0000,0.0000,1
69,8.864,0.0000,0.0000,1
70,8.889,0.0000,0.0000,1
71,8.915,0.0000,0.0000,1
72,8.943,0.0000,0.0000,1
73,8.968,0.0000,0.0000,1
74,8.995,0.0000,0.0000,1
75,9.025,0.0000,0.0000,1
76,9.052,0.0000,0.0000,1
77,9.080,0.0000,0.0000,1
78,9.106,0.0000,0.0000,1
79,9.132,0.0000,0.0000,1
80,9.159,0.0000,0.0000,1
81,9.186,3.2320,1.2849,0
82,9.214,0.0000,0.0000,1
83,9.240,0.0000,0.0000,1
84,9.266,0.0000,0.0000,1
85,9.297,0.0000,0.0000,1
86,9.324,0.0000,0.0000,1
87,9.351,0.0000,0.0000,1
88,9.378,0.0000,0.0000,1
89,9.403,0.0000,0.0000,1
90,9.430,0.0000,0.0000,1
91,9.456,0.0000,0.0000,1
92,9.483,0.0000,0.0000,1
93,9.509,0.0000,0.0000,1
94,9.535,0.0000,0.0000,1
95,9.565,0.0000,0.0000,1
96,9.592,0.0000,0.0000,1
97,9.619,0.0000,0.0000,1
98,9.645,0.0000,0.0000,1
99,9.671,0.0000,0.0000,1
100,9.697,0.0000,0.0000,1
101,9.724,0.0000,0.0000,1
102,9.751,0.0000,0.0000,1
103,9.777,0.0000,0.0000,1
104,9.802,3.2320,1.4397,0
105,9.833,0.0000,0.0000,1
106,9.860,0.0000,0.0000,1
107,9.888,0.0000,0.0000,1
108,9.914,0.0000,0.0000,1
109,9.942,0.0000,0.0000,1
110,9.968,0.0000,0.0000,1
111,9.995,0.0000,0.0000,1
112,10.022,0.0000,0.0000,1
113,10.049,0.0000,0.0000,1
114,10.076,0.0000,0.0000,1
115,10.105,0.0000,0.0000,1
116,10.133,0.0000,0.0000,1
117,10.158,0.0000,0.0000,1
118,10.185,3.2320,1.5638,0
119,10.215,0.0000,0.0000,1
120,10.242,0.0000,0.0000,1
121,10.268,0.0000,0.0000,1
122,10.295,0.0000,0.0000,1
123,10.322,0.0000,0.0000,1
124,10.350,0.0000,0.0000,1
125,10.380,0.0000,0.0000,1
126,10.406,0.0000,0.0000,1
127,10.433,0.0000,0.0000,1
128,10.461,0.0000,0.0000,1
129,10.488,0.0000,0.0000,1
130,10.516,0.0000,0.0000,1
131,10.543,0.0000,0.0000,1
132,10.569,3.2320,1.6904,0
133,10.598,0.0000,0.0000,1
134,10.625,0.0000,0.0000,1
135,10.655,0.0000,0.0000,1
136,10.683,0.0000,0.0000,1
137,10.711,0.0000,0.0000,1
138,10.737,0.0000,0.0000,1
139,10.764,0.0000,0.0000,1
140,10.792,0.0000,0.0000,1
141,10.820,0.0000,0.0000,1
142,10.847,0.0000,0.0000,1
143,10.875,0.0000,0.0000,1
144,10.901,3.2320,1.8098,0
145,10.934,0.0000,0.0000,1
146,10.962,0.0000,0.0000,1
147,10.990,0.0000,0.0000,1
148,11.026,0.0000,0.0000,1
149,11.053,0.0000,0.0000,1
150,11.082,0.0000,0.0000,1
151,11.108,0.0000,0.0000,1
152,11.136,0.0000,0.0000,1
153,11.164,0.0000,0.0000,1
154,11.192,0.0000,0.0000,1
155,11.220,0.0000,0.0000,1
156,11.248,0.0000,0.0000,1
157,11.275,0.0000,0.0000,1
158,11.303,0.0000,0.0000,1
159,11.331,0.0000,0.0000,1
160,11.358,0.0000,0.0000,1
161,11.384,3.2320,1.9006,0
162,11.415,0.0000,0.0000,1
163,11.443,0.0000,0.0000,1
164,11.471,0.0000,0.0000,1
165,11.502,3.2320,1.9865,0
166,11.533,0.0000,0.0000,1
167,11.561,0.0000,0.0000,1
168,11.589,0.0000,0.0000,1
169,11.616,0.0000,0.0000,1
170,11.644,0.0000,0.0000,1
171,11.673,0.0000,0.0000,1
172,11.701,3.2320,2.0753,0
173,11.732,0.0000,0.0000,1
174,11.760,0.0000,0.0000,1
175,11.793,0.0000,0.0000,1
176,11.821,0.0000,0.0000,1
177,11.849,0.0000,0.0000,1
178,11.877,0.0000,0.0000,1
179,11.905,0.0000,0.0000,1
180,11.934,3.2320,2.1431,0
181,11.966,0.0000,0.0000,1
182,11.995,0.0000,0.0000,1
183,12.023,0.0000,0.0000,1
184,12.051,3.2320,2.1989,0
185,12.086,0.0000,0.0000,1
186,12.115,0.0000,0.0000,1
187,12.144,0.0000,0.0000,1
188,12.172,0.0000,0.0000,1
189,12.201,3.2320,2.2608,0
190,12.233,0.0000,0.0000,1
191,12.263,0.0000,0.0000,1
192,12.292,0.0000,0.0000,1
193,12.322,0.0000,0.0000,1
194,12.350,0.0000,0.0000,1
195,12.381,0.0000,0.0000,1
196,12.410,0.0000,0.0000,1
197,12.440,0.0000,0.0000,1
198,12.469,0.0000,0.0000,1
199,12.499,0.0000,0.0000,1
200,12.529,0.0000,0.0000,1
201,12.557,0.0000,0.0000,1
202,12.585,0.0000,0.0000,1
203,12.614,0.0000,0.0000,1
204,12.643,0.0000,0.0000,1
205,12.676,0.0000,0.0000,1
206,12.705,0.0000,0.0000,1
207,12.735,0.0000,0.0000,1
208,12.765,0.0000,0.0000,1
209,12.794,0.0000,0.0000,1
210,12.822,0.0000,0.0000,1
211,12.852,3.2320,2.3116,0
212,12.883,0.0000,0.0000,1
213,12.913,0.0000,0.0000,1
214,12.943,0.0000,0.0000,1
215,12.975,0.0000,0.0000,1
216,13.005,0.0000,0.0000,1
217,13.036,0.0000,0.0000,1
218,13.069,0.0000,0.0000,1
219,13.099,0.0000,0.0000,1
220,13.129,0.0000,0.0000,1
221,13.162,0.0000,0.0000,1
222,13.191,0.0000,0.0000,1
223,13.221,0.0000,0.0000,1
224,13.250,0.0000,0.0000,1
225,13.284,3.2320,2.3467,0
226,13.317,0.0000,0.0000,1
227,13.347,0.0000,0.0000,1
228,13.377,0.0000,0.0000,1
229,13.407,0.0000,0.0000,1
230,13.436,0.0000,0.0000,1
231,13.466,0.0000,0.0000,1
232,13.496,0.0000,0.0000,1
233,13.526,0.0000,0.0000,1
234,13.555,0.0000,0.0000,1
235,13.588,0.0000,0.0000,1
236,13.617,0.0000,0.0000,1
237,13.646,0.0000,0.0000,1
238,13.676,0.0000,0.0000,1
239,13.705,0.0000,0.0000,1
240,13.735,0.0000,0.0000,1
241,13.766,0.0000,0.0000,1
242,13.796,0.0000,0.0000,1
243,13.826,0.0000,0.0000,1
244,13.855,0.0000,0.0000,1
245,13.887,0.0000,0.0000,1
246,13.917,0.0000,0.0000,1
247,13.946,0.0000,0.0000,1
248,13.975,0.0000,0.0000,1
249,14.005,0.0000,0.0000,1
250,14.035,0.0000,0.0000,1
251,14.067,3.2320,2.3856,0
252,14.099,0.0000,0.0000,1
253,14.130,0.0000,0.0000,1
254,14.161,0.0000,0.0000,1
255,14.195,0.0000,0.0000,1
256,14.225,0.0000,0.0000,1
257,14.255,0.0000,0.0000,1
258,14.286,0.0000,0.0000,1
259,14.315,0.0000,0.0000,1
260,14.346,0.0000,0.0000,1
261,14.375,0.0000,0.0000,1
262,14.405,0.0000,0.0000,1
263,14.435,0.0000,0.0000,1
264,14.467,0.0000,0.0000,1
265,14.499,0.0000,0.0000,1
266,14.530,0.0000,0.0000,1
267,14.561,0.0000,0.0000,1
268,14.591,0.0000,0.0000,1
269,14.621,0.0000,0.0000,1
270,14.651,0.0000,0.0000,1
271,14.681,0.0000,0.0000,1
272,14.711,0.0000,0.0000,1
273,14.741,0.0000,0.0000,1
274,14.771,0.0000,0.0000,1
275,14.805,0.0000,0.0000,1
276,14.836,0.0000,0.0000,1
277,14.865,0.0000,0.0000,1
278,14.895,0.0000,0.0000,1
279,14.925,0.0000,0.0000,1
280,14.955,0.0000,0.0000,1
281,14.985,0.0000,0.0000,1
282,15.015,0.0000,0.0000,1
283,15.045,0.0000,0.0000,1
284,15.076,0.0000,0.0000,1
285,15.110,0.0000,0.0000,1
286,15.141,0.0000,0.0000,1
287,15.171,0.0000,0.0000,1
288,15.202,0.0000,0.0000,1
289,15.233,3.2320,2.4224,0
290,15.266,3.2320,2.4441,0
291,15.300,3.2320,2.4647,0
292,15.333,3.2320,2.4888,0
293,15.366,3.2320,2.5019,0
294,15.399,3.2320,2.5093,0
295,15.435,0.0000,0.0000,1
296,15.468,0.0000,0.0000,1
297,15.499,3.2320,2.5217,0
298,15.533,3.2320,2.5288,0
299,15.567,0.0000,0.0000,1
300,15.599,0.0000,0.0000,1
301,15.630,0.0000,0.0000,1
302,15.661,0.0000,0.0000,1
303,15.692,0.0000,0.0000,1
304,15.724,0.0000,0.0000,1
305,15.758,0.0000,0.0000,1
306,15.788,0.0000,0.0000,1
307,15.819,0.0000,0.0000,1
308,15.851,0.0000,0.0000,1
309,15.882,0.0000,0.0000,1
310,15.912,0.0000,0.0000,1
311,15.944,0.0000,0.0000,1
312,15.975,0.0000,0.0000,1
313,16.005,0.0000,0.0000,1
314,16.036,0.0000,0.0000,1
315,16.071,0.0000,0.0000,1
316,16.102,0.0000,0.0000,1
317,16.132,3.2320,2.5276,0
318,16.165,0.0000,0.0000,1
319,16.196,0.0000,0.0000,1
320,16.227,0.0000,0.0000,1
321,16.258,0.0000,0.0000,1
322,16.289,0.0000,0.0000,1
323,16.320,0.0000,0.0000,1
324,16.351,0.0000,0.0000,1
325,16.388,0.0000,0.0000,1
326,16.418,0.0000,0.0000,1
327,16.451,0.0000,0.0000,1
328,16.482,3.2320,2.5298,0
329,16.516,3.2320,2.5317,0
330,16.549,3.2320,2.5255,0
331,16.582,0.0000,0.0000,1
332,16.613,0.0000,0.0000,1
333,16.645,0.0000,0.0000,1
334,16.677,0.0000,0.0000,1
335,16.711,0.0000,0.0000,1
336,16.743,0.0000,0.0000,1
337,16.775,0.0000,0.0000,1
338,16.807,0.0000,0.0000,1
339,16.839,0.0000,0.0000,1
340,16.870,0.0000,0.0000,1
341,16.902,0.0000,0.0000,1
342,16.933,0.0000,0.0000,1
343,16.965,3.2320,2.5195,0
344,16.998,3.2320,2.5164,0
345,17.035,0.0000,0.0000,1
346,17.069,0.0000,0.0000,1
347,17.101,0.0000,0.0000,1
348,17.133,0.0000,0.0000,1
349,17.165,0.0000,0.0000,1
350,17.197,0.0000,0.0000,1
351,17.230,0.0000,0.0000,1
352,17.262,0.0000,0.0000,1
353,17.295,0.0000,0.0000,1
354,17.327,0.0000,0.0000,1
355,17.363,0.0000,0.0000,1
356,17.396,0.0000,0.0000,1
357,17.429,0.0000,0.0000,1
358,17.462,0.0000,0.0000,1
359,17.494,0.0000,0.0000,1
360,17.527,0.0000,0.0000,1
361,17.560,0.0000,0.0000,1
362,17.592,0.0000,0.0000,1
363,17.624,0.0000,0.0000,1
364,17.657,0.0000,0.0000,1
365,17.694,0.0000,0.0000,1
366,17.726,0.0000,0.0000,1
367,17.758,0.0000,0.0000,1
368,17.790,0.0000,0.0000,1
369,17.823,0.0000,0.0000,1
370,17.855,0.0000,0.0000,1
371,17.888,0.0000,0.0000,1
372,17.920,0.0000,0.0000,1
373,17.952,0.0000,0.0000,1
374,17.983,0.0000,0.0000,1
375,18.018,0.0000,0.0000,1
376,18.050,0.0000,0.0000,1
377,18.084,0.0000,0.0000,1
378,18.116,0.0000,0.0000,1
379,18.148,0.0000,0.0000,1
380,18.180,0.0000,0.0000,1
381,18.213,0.0000,0.0000,1
382,18.245,0.0000,0.0000,1
383,18.277,0.0000,0.0000,1
384,18.310,0.0000,0.0000,1
385,18.345,0.0000,0.0000,1
386,18.378,0.0000,0.0000,1
387,18.411,0.0000,0.0000,1
388,18.443,0.0000,0.0000,1
389,18.477,0.0000,0.0000,1
390,18.509,0.0000,0.0000,1
391,18.542,0.0000,0.0000,1
392,18.574,0.0000,0.0000,1
393,18.606,0.0000,0.0000,1
394,18.638,0.0000,0.0000,1
395,18.675,0.0000,0.0000,1
396,18.707,0.0000,0.0000,1
397,18.740,0.0000,0.0000,1
398,18.773,0.0000,0.0000,1
399,18.805,0.0000,0.0000,1
400,18.837,0.0000,0.0000,1
401,18.870,0.0000,0.0000,1
402,18.902,0.0000,0.0000,1
403,18.933,0.0000,0.0000,1
404,18.964,3.2340,2.5077,0
405,19.002,0.0000,0.0000,1
406,19.034,0.0000,0.0000,1
407,19.067,0.0000,0.0000,1
408,19.099,0.0000,0.0000,1
409,19.131,3.2340,2.4961,0
410,19.167,0.0000,0.0000,1
411,19.199,0.0000,0.0000,1
412,19.231,0.0000,0.0000,1
413,19.263,0.0000,0.0000,1
414,19.295,0.0000,0.0000,1
415,19.332,0.0000,0.0000,1
416,19.367,0.0000,0.0000,1
417,19.402,0.0000,0.0000,1
418,19.435,0.0000,0.0000,1
419,19.468,0.0000,0.0000,1
420,19.501,0.0000,0.0000,1
421,19.534,0.0000,0.0000,1
422,19.567,0.0000,0.0000,1
423,19.601,0.0000,0.0000,1
424,19.634,0.0000,0.0000,1
425,19.672,0.0000,0.0000,1
426,19.705,0.0000,0.0000,1
427,19.739,0.0000,0.0000,1
428,19.773,0.0000,0.0000,1
429,19.806,0.0000,0.0000,1
430,19.838,0.0000,0.0000,1
431,19.871,0.0000,0.0000,1
432,19.904,0.0000,0.0000,1
433,19.937,0.0000,0.0000,1
434,19.970,0.0000,0.0000,1
435,20.007,0.0000,0.0000,1
436,20.040,0.0000,0.0000,1
437,20.073,0.0000,0.0000,1
438,20.106,0.0000,0.0000,1
439,20.139,0.0000,0.0000,1
440,20.172,0.0000,0.0000,1
441,20.205,0.0000,0.0000,1
442,20.238,0.0000,0.0000,1
443,20.271,0.0000,0.0000,1
444,20.304,0.0000,0.0000,1
445,20.341,0.0000,0.0000,1
446,20.374,0.0000,0.0000,1
447,20.408,0.0000,0.0000,1
448,20.442,0.0000,0.0000,1
449,20.475,0.0000,0.0000,1
450,20.508,0.0000,0.0000,1
451,20.542,0.0000,0.0000,1
452,20.575,0.0000,0.0000,1
453,20.608,0.0000,0.0000,1
454,20.641,0.0000,0.0000,1
455,20.678,0.0000,0.0000,1
456,20.711,0.0000,0.0000,1
457,20.745,0.0000,0.0000,1
458,20.778,0.0000,0.0000,1
459,20.813,0.0000,0.0000,1
460,20.847,3.2320,2.4881,0
461,20.883,0.0000,0.0000,1
462,20.917,0.0000,0.0000,1
463,20.950,0.0000,0.0000,1
464,20.984,0.0000,0.0000,1
465,21.022,0.0000,0.0000,1
466,21.055,0.0000,0.0000,1
467,21.090,0.0000,0.0000,1
468,21.124,0.0000,0.0000,1
469,21.158,0.0000,0.0000,1
470,21.192,0.0000,0.0000,1
471,21.225,0.0000,0.0000,1
472,21.259,0.0000,0.0000,1
473,21.293,0.0000,0.0000,1
474,21.327,0.0000,0.0000,1
475,21.363,3.2320,2.4775,0
476,21.399,0.0000,0.0000,1
477,21.434,0.0000,0.0000,1
478,21.468,0.0000,0.0000,1
479,21.502,0.0000,0.0000,1
480,21.536,0.0000,0.0000,1
481,21.569,0.0000,0.0000,1
482,21.603,0.0000,0.0000,1
483,21.636,0.0000,0.0000,1
484,21.670,0.0000,0.0000,1
485,21.708,0.0000,0.0000,1
486,21.742,0.0000,0.0000,1
487,21.776,0.0000,0.0000,1
488,21.810,0.0000,0.0000,1
489,21.846,0.0000,0.0000,1
490,21.881,0.0000,0.0000,1
491,21.915,0.0000,0.0000,1
492,21.949,0.0000,0.0000,1
493,21.984,0.0000,0.0000,1
494,22.018,0.0000,0.0000,1
495,22.056,0.0000,0.0000,1
496,22.091,0.0000,0.0000,1
497,22.125,0.0000,0.0000,1
498,22.159,0.0000,0.0000,1
499,22.194,0.0000,0.0000,1
500,22.228,0.0000,0.0000,1
501,22.264,3.2320,2.4624,0
502,22.300,0.0000,0.0000,1
503,22.335,0.0000,0.0000,1
504,22.369,0.0000,0.0000,1
505,22.408,0.0000,0.0000,1
506,22.442,0.0000,0.0000,1
507,22.476,0.0000,0.0000,1
508,22.512,0.0000,0.0000,1
509,22.547,0.0000,0.0000,1
510,22.582,0.0000,0.0000,1
511,22.616,0.0000,0.0000,1
512,22.650,0.0000,0.0000,1
513,22.685,0.0000,0.0000,1
514,22.719,0.0000,0.0000,1
515,22.757,0.0000,0.0000,1
516,22.791,0.0000,0.0000,1
517,22.825,0.0000,0.0000,1
518,22.859,0.0000,0.0000,1
519,22.894,0.0000,0.0000,1
520,22.930,3.2320,2.4499,0
521,22.966,0.0000,0.0000,1
522,23.001,0.0000,0.0000,1
523,23.035,0.0000,0.0000,1
524,23.070,0.0000,0.0000,1
525,23.108,0.0000,0.0000,1
526,23.142,0.0000,0.0000,1
527,23.176,0.0000,0.0000,1
528,23.210,0.0000,0.0000,1
529,23.246,3.2320,2.4377,0
530,23.282,0.0000,0.0000,1
531,23.316,0.0000,0.0000,1
532,23.351,0.0000,0.0000,1
533,23.385,0.0000,0.0000,1
534,23.419,0.0000,0.0000,1
535,23.457,0.0000,0.0000,1
536,23.491,0.0000,0.0000,1
537,23.525,0.0000,0.0000,1
538,23.559,0.0000,0.0000,1
539,23.594,0.0000,0.0000,1
540,23.629,3.2320,2.4211,0
541,23.665,0.0000,0.0000,1
542,23.700,0.0000,0.0000,1
543,23.734,0.0000,0.0000,1
544,23.768,0.0000,0.0000,1
545,23.806,0.0000,0.0000,1
546,23.839,0.0000,0.0000,1
547,23.873,0.0000,0.0000,1
548,23.907,0.0000,0.0000,1
549,23.941,0.0000,0.0000,1
550,23.975,0.0000,0.0000,1
551,24.010,0.0000,0.0000,1
552,24.045,0.0000,0.0000,1
553,24.080,0.0000,0.0000,1
554,24.114,0.0000,0.0000,1
555,24.153,0.0000,0.0000,1
556,24.187,0.0000,0.0000,1
557,24.221,0.0000,0.0000,1
558,24.255,0.0000,0.0000,1
559,24.289,0.0000,0.0000,1
560,24.323,0.0000,0.0000,1
561,24.358,0.0000,0.0000,1
562,24.392,0.0000,0.0000,1
563,24.427,0.0000,0.0000,1
564,24.462,3.2320,2.4051,0
565,24.502,0.0000,0.0000,1
566,24.536,0.0000,0.0000,1
567,24.569,0.0000,0.0000,1
568,24.604,0.0000,0.0000,1
569,24.638,0.0000,0.0000,1
570,24.673,0.0000,0.0000,1
571,24.707,0.0000,0.0000,1
572,24.742,0.0000,0.0000,1
573,24.778,0.0000,0.0000,1
574,24.813,0.0000,0.0000,1
575,24.852,0.0000,0.0000,1
576,24.886,0.0000,0.0000,1
577,24.920,0.0000,0.0000,1
578,24.954,0.0000,0.0000,1
579,24.989,0.0000,0.0000,1
580,25.023,0.0000,0.0000,1
581,25.058,0.0000,0.0000,1
582,25.093,0.0000,0.0000,1
583,25.129,3.2300,2.3910,0
584,25.165,0.0000,0.0000,1
585,25.203,0.0000,0.0000,1
586,25.238,0.0000,0.0000,1
587,25.272,0.0000,0.0000,1
588,25.306,0.0000,0.0000,1
589,25.340,0.0000,0.0000,1
590,25.375,0.0000,0.0000,1
591,25.411,0.0000,0.0000,1
592,25.446,0.0000,0.0000,1
593,25.480,0.0000,0.0000,1
594,25.514,0.0000,0.0000,1
595,25.554,0.0000,0.0000,1
596,25.587,0.0000,0.0000,1
597,25.622,0.0000,0.0000,1
598,25.655,0.0000,0.0000,1
599,25.690,0.0000,0.0000,1
600,25.725,0.0000,0.0000,1
601,25.760,0.0000,0.0000,1
602,25.795,0.0000,0.0000,1
603,25.830,0.0000,0.0000,1
604,25.864,0.0000,0.0000,1
605,25.902,0.0000,0.0000,1
606,25.936,0.0000,0.0000,1
607,25.970,0.0000,0.0000,1
608,26.004,0.0000,0.0000,1
609,26.037,0.0000,0.0000,1
610,26.072,0.0000,0.0000,1
611,26.106,0.0000,0.0000,1
612,26.140,0.0000,0.0000,1
613,26.175,0.0000,0.0000,1
614,26.210,0.0000,0.0000,1
615,26.247,0.0000,0.0000,1
616,26.281,0.0000,0.0000,1
617,26.315,0.0000,0.0000,1
618,26.348,0.0000,0.0000,1
619,26.381,0.0000,0.0000,1
620,26.414,0.0000,0.0000,1
621,26.447,0.0000,0.0000,1
622,26.480,0.0000,0.0000,1
623,26.513,0.0000,0.0000,1
624,26.545,0.0000,0.0000,1
625,26.582,0.0000,0.0000,1
626,26.615,0.0000,0.0000,1
627,26.648,0.0000,0.0000,1
628,26.681,0.0000,0.0000,1
629,26.714,0.0000,0.0000,1
630,26.747,0.0000,0.0000,1
631,26.780,0.0000,0.0000,1
632,26.827,0.0000,0.0000,1
633,26.856,0.0000,0.0000,1
634,26.889,0.0000,0.0000,1
635,26.925,0.0000,0.0000,1
636,26.958,0.0000,0.0000,1
637,26.991,0.0000,0.0000,1
638,27.023,0.0000,0.0000,1
639,27.055,0.0000,0.0000,1
640,27.089,0.0000,0.0000,1
641,27.123,0.0000,0.0000,1
642,27.157,0.0000,0.0000,1
643,27.191,0.0000,0.0000,1
644,27.224,0.0000,0.0000,1
645,27.264,0.0000,0.0000,1
646,27.297,0.0000,0.0000,1
647,27.330,0.0000,0.0000,1
648,27.363,0.0000,0.0000,1
649,27.395,0.0000,0.0000,1
650,27.427,3.2340,2.3742,0
651,27.462,0.0000,0.0000,1
652,27.495,0.0000,0.0000,1
653,27.528,0.0000,0.0000,1
654,27.562,0.0000,0.0000,1
655,27.598,0.0000,0.0000,1
656,27.631,0.0000,0.0000,1
657,27.664,0.0000,0.0000,1
658,27.697,0.0000,0.0000,1
659,27.730,0.0000,0.0000,1
660,27.763,0.0000,0.0000,1
661,27.795,0.0000,0.0000,1
662,27.828,0.0000,0.0000,1
663,27.860,3.2320,2.3558,0
664,27.895,0.0000,0.0000,1
665,27.933,0.0000,0.0000,1
666,27.965,0.0000,0.0000,1
667,27.998,0.0000,0.0000,1
668,28.031,0.0000,0.0000,1
669,28.067,0.0000,0.0000,1
670,28.099,0.0000,0.0000,1
671,28.132,0.0000,0.0000,1
672,28.164,0.0000,0.0000,1
673,28.197,0.0000,0.0000,1
674,28.229,0.0000,0.0000,1
675,28.266,0.0000,0.0000,1
676,28.298,0.0000,0.0000,1
677,28.331,0.0000,0.0000,1
678,28.363,0.0000,0.0000,1
679,28.396,0.0000,0.0000,1
680,28.428,0.0000,0.0000,1
681,28.459,0.0000,0.0000,1
682,28.491,0.0000,0.0000,1
683,28.522,0.0000,0.0000,1
684,28.554,0.0000,0.0000,1
685,28.590,0.0000,0.0000,1
686,28.622,0.0000,0.0000,1
687,28.655,0.0000,0.0000,1
688,28.687,0.0000,0.0000,1
689,28.717,0.0000,0.0000,1
690,28.747,0.0000,0.0000,1
691,28.778,0.0000,0.0000,1
692,28.809,0.0000,0.0000,1
693,28.841,0.0000,0.0000,1
694,28.873,0.0000,0.0000,1
695,28.908,0.0000,0.0000,1
696,28.940,0.0000,0.0000,1
697,28.973,0.0000,0.0000,1
698,29.005,0.0000,0.0000,1
699,29.038,0.0000,0.0000,1
700,29.073,0.0000,0.0000,1
701,29.105,0.0000,0.0000,1
702,29.138,0.0000,0.0000,1
703,29.171,0.0000,0.0000,1
704,29.203,0.0000,0.0000,1
705,29.238,0.0000,0.0000,1
706,29.270,0.0000,0.0000,1
707,29.301,0.0000,0.0000,1
708,29.333,0.0000,0.0000,1
709,29.365,0.0000,0.0000,1
710,29.396,0.0000,0.0000,1
711,29.427,0.0000,0.0000,1
712,29.458,0.0000,0.0000,1
713,29.488,0.0000,0.0000,1
714,29.520,0.0000,0.0000,1
715,29.554,0.0000,0.0000,1
716,29.585,0.0000,0.0000,1
717,29.615,0.0000,0.0000,1
718,29.646,0.0000,0.0000,1
719,29.677,3.2320,2.3400,0
720,29.709,3.2320,2.3229,0
721,29.742,0.0000,0.0000,1
722,29.773,0.0000,0.0000,1
723,29.804,0.0000,0.0000,1
724,29.835,0.0000,0.0000,1
725,29.871,0.0000,0.0000,1
726,29.902,0.0000,0.0000,1
727,29.932,0.0000,0.0000,1
728,29.963,0.0000,0.0000,1
729,29.994,0.0000,0.0000,1
730,30.025,0.0000,0.0000,1
731,30.063,0.0000,0.0000,1
732,30.094,0.0000,0.0000,1
733,30.125,0.0000,0.0000,1
734,30.156,0.0000,0.0000,1
735,30.191,0.0000,0.0000,1
736,30.223,0.0000,0.0000,1
737,30.255,0.0000,0.0000,1
738,30.286,0.0000,0.0000,1
739,30.318,0.0000,0.0000,1
740,30.350,0.0000,0.0000,1
741,30.383,0.0000,0.0000,1
742,30.414,0.0000,0.0000,1
743,30.446,0.0000,0.0000,1
744,30.477,0.0000,0.0000,1
745,30.522,0.0000,0.0000,1
746,30.553,0.0000,0.0000,1
747,30.585,0.0000,0.0000,1
748,30.616,0.0000,0.0000,1
749,30.647,0.0000,0.0000,1
750,30.678,0.0000,0.0000,1
751,30.709,3.2320,2.3035,0
752,30.745,0.0000,0.0000,1
753,30.775,3.2320,2.2858,0
754,30.809,3.2320,2.2687,0
755,30.846,0.0000,0.0000,1
756,30.878,0.0000,0.0000,1
757,30.909,3.2320,2.2490,0
758,30.943,0.0000,0.0000,1
759,30.974,0.0000,0.0000,1
760,31.004,0.0000,0.0000,1
761,31.036,0.0000,0.0000,1
762,31.073,0.0000,0.0000,1
763,31.101,0.0000,0.0000,1
764,31.133,0.0000,0.0000,1
765,31.168,0.0000,0.0000,1
766,31.200,0.0000,0.0000,1
767,31.231,0.0000,0.0000,1
768,31.262,0.0000,0.0000,1
769,31.294,0.0000,0.0000,1
770,31.325,3.2320,2.2300,0
771,31.358,0.0000,0.0000,1
772,31.390,0.0000,0.0000,1
773,31.422,0.0000,0.0000,1
774,31.453,0.0000,0.0000,1
775,31.489,0.0000,0.0000,1
776,31.521,0.0000,0.0000,1
777,31.553,0.0000,0.0000,1
778,31.585,0.0000,0.0000,1
779,31.617,0.0000,0.0000,1
780,31.649,0.0000,0.0000,1
781,31.682,0.0000,0.0000,1
782,31.714,0.0000,0.0000,1
783,31.747,0.0000,0.0000,1
784,31.779,0.0000,0.0000,1
785,31.815,0.0000,0.0000,1
786,31.847,0.0000,0.0000,1
787,31.879,0.0000,0.0000,1
788,31.911,0.0000,0.0000,1
789,31.943,0.0000,0.0000,1
790,31.975,3.2320,2.2125,0
791,32.009,0.0000,0.0000,1
792,32.041,0.0000,0.0000,1
793,32.073,0.0000,0.0000,1
794,32.105,0.0000,0.0000,1
795,32.140,0.0000,0.0000,1
796,32.171,0.0000,0.0000,1
797,32.203,0.0000,0.0000,1
798,32.235,0.0000,0.0000,1
799,32.267,0.0000,0.0000,1
800,32.299,0.0000,0.0000,1
801,32.331,0.0000,0.0000,1
802,32.364,0.0000,0.0000,1
803,32.395,0.0000,0.0000,1
804,32.427,0.0000,0.0000,1
805,32.462,0.0000,0.0000,1
806,32.494,0.0000,0.0000,1
807,32.526,3.2320,2.1932,0
808,32.560,0.0000,0.0000,1
809,32.592,0.0000,0.0000,1
810,32.624,0.0000,0.0000,1
811,32.656,0.0000,0.0000,1
812,32.687,0.0000,0.0000,1
813,32.718,0.0000,0.0000,1
814,32.750,0.0000,0.0000,1
815,32.785,0.0000,0.0000,1
816,32.818,0.0000,0.0000,1
817,32.850,0.0000,0.0000,1
818,32.882,0.0000,0.0000,1
819,32.915,0.0000,0.0000,1
820,32.947,0.0000,0.0000,1
821,32.979,0.0000,0.0000,1
822,33.011,0.0000,0.0000,1
823,33.042,0.0000,0.0000,1
824,33.073,0.0000,0.0000,1
825,33.108,0.0000,0.0000,1
826,33.140,0.0000,0.0000,1
827,33.172,0.0000,0.0000,1
828,33.202,0.0000,0.0000,1
829,33.234,0.0000,0.0000,1
830,33.266,0.0000,0.0000,1
831,33.295,0.0000,0.0000,1
832,33.326,0.0000,0.0000,1
833,33.358,3.2320,2.1734,0
834,33.390,0.0000,0.0000,1
835,33.425,0.0000,0.0000,1
836,33.456,0.0000,0.0000,1
837,33.486,0.0000,0.0000,1
838,33.517,0.0000,0.0000,1
839,33.549,0.0000,0.0000,1
840,33.579,0.0000,0.0000,1
841,33.610,0.0000,0.0000,1
842,33.641,3.2320,2.1552,0
843,33.674,3.2320,2.1365,0
844,33.707,0.0000,0.0000,1
845,33.743,0.0000,0.0000,1
846,33.774,3.2320,2.1165,0
847,33.808,0.0000,0.0000,1
848,33.839,0.0000,0.0000,1
849,33.871,0.0000,0.0000,1
850,33.902,0.0000,0.0000,1
851,33.933,0.0000,0.0000,1
852,33.965,0.0000,0.0000,1
853,33.997,0.0000,0.0000,1
854,34.028,0.0000,0.0000,1
855,34.065,0.0000,0.0000,1
856,34.096,0.0000,0.0000,1
857,34.127,0.0000,0.0000,1
858,34.158,0.0000,0.0000,1
859,34.190,0.0000,0.0000,1
860,34.221,0.0000,0.0000,1
861,34.253,0.0000,0.0000,1
862,34.285,0.0000,0.0000,1
863,34.316,0.0000,0.0000,1
864,34.348,0.0000,0.0000,1
865,34.384,0.0000,0.0000,1
866,34.415,0.0000,0.0000,1
867,34.448,0.0000,0.0000,1
868,34.481,0.0000,0.0000,1
869,34.513,0.0000,0.0000,1
870,34.545,0.0000,0.0000,1
871,34.578,0.0000,0.0000,1
872,34.610,0.0000,0.0000,1
873,34.642,0.0000,0.0000,1
874,34.674,3.2340,2.0979,0
875,34.711,0.0000,0.0000,1
876,34.743,0.0000,0.0000,1
877,34.775,0.0000,0.0000,1
878,34.808,0.0000,0.0000,1
879,34.840,3.2320,2.0796,0
880,34.875,0.0000,0.0000,1
881,34.907,0.0000,0.0000,1
882,34.940,3.2320,2.0600,0
883,34.975,0.0000,0.0000,1
884,35.008,0.0000,0.0000,1
885,35.045,0.0000,0.0000,1
886,35.078,0.0000,0.0000,1
887,35.112,0.0000,0.0000,1
888,35.144,0.0000,0.0000,1
889,35.178,0.0000,0.0000,1
890,35.211,0.0000,0.0000,1
891,35.245,0.0000,0.0000,1
892,35.278,0.0000,0.0000,1
893,35.311,0.0000,0.0000,1
894,35.344,0.0000,0.0000,1
895,35.381,0.0000,0.0000,1
896,35.414,0.0000,0.0000,1
897,35.447,0.0000,0.0000,1
898,35.481,0.0000,0.0000,1
899,35.515,0.0000,0.0000,1
900,35.549,0.0000,0.0000,1
901,35.584,0.0000,0.0000,1
902,35.618,0.0000,0.0000,1
903,35.651,0.0000,0.0000,1
904,35.684,0.0000,0.0000,1
905,35.721,0.3000,1.8086,0
906,35.756,0.0000,0.0000,1
907,35.789,0.0000,0.0000,1
908,35.822,0.0000,0.0000,1
909,35.855,0.0000,0.0000,1
910,35.887,0.0000,0.0000,1
911,35.920,0.0000,0.0000,1
912,35.952,0.0000,0.0000,1
913,35.985,0.0000,0.0000,1
914,36.017,0.0000,0.0000,1
915,36.054,0.0000,0.0000,1
916,36.088,0.0000,0.0000,1
917,36.121,0.0000,0.0000,1
918,36.154,0.0000,0.0000,1
919,36.186,0.0000,0.0000,1
920,36.218,0.0000,0.0000,1
921,36.251,0.0000,0.0000,1
922,36.284,0.0000,0.0000,1
923,36.316,0.0000,0.0000,1
924,36.349,0.0000,0.0000,1
925,36.386,0.0000,0.0000,1
926,36.419,0.0000,0.0000,1
927,36.452,0.0000,0.0000,1
928,36.485,0.0000,0.0000,1
929,36.517,0.0000,0.0000,1
930,36.550,0.0000,0.0000,1
931,36.582,0.0000,0.0000,1
932,36.615,0.0000,0.0000,1
933,36.648,0.0000,0.0000,1
934,36.682,0.0000,0.0000,1
935,36.719,0.0000,0.0000,1
936,36.751,0.0000,0.0000,1
937,36.784,0.0000,0.0000,1
938,36.817,0.0000,0.0000,1
939,36.850,0.0000,0.0000,1
940,36.882,0.0000,0.0000,1
941,36.915,0.0000,0.0000,1
942,36.947,0.0000,0.0000,1
943,36.981,0.0000,0.0000,1
944,37.015,0.0000,0.0000,1
945,37.052,0.0000,0.0000,1
946,37.086,0.0000,0.0000,1
947,37.118,0.0000,0.0000,1
948,37.152,0.0000,0.0000,1
949,37.185,0.0000,0.0000,1
950,37.217,0.0000,0.0000,1
951,37.250,0.0000,0.0000,1
952,37.282,0.0000,0.0000,1
953,37.315,0.0000,0.0000,1
954,37.348,0.0000,0.0000,1
955,37.384,0.0000,0.0000,1
956,37.417,0.0000,0.0000,1
957,37.450,0.0000,0.0000,1
958,37.479,0.0000,0.0000,1
959,37.511,0.0000,0.0000,1
960,37.543,0.0000,0.0000,1
961,37.575,0.0000,0.0000,1
962,37.607,0.0000,0.0000,1
963,37.638,0.0000,0.0000,1
964,37.669,0.0000,0.0000,1
965,37.706,3.2320,1.8041,0
966,37.740,3.2320,1.7865,0
967,37.775,0.0000,0.0000,1
968,37.807,0.0000,0.0000,1
969,37.839,3.2320,1.8044,0
970,37.873,0.0000,0.0000,1
971,37.906,3.2320,1.8095,0
972,37.941,0.0000,0.0000,1
973,37.974,0.0000,0.0000,1
974,38.008,0.0000,0.0000,1
975,38.045,0.0000,0.0000,1
976,38.078,0.0000,0.0000,1
977,38.110,0.0000,0.0000,1
978,38.144,0.0000,0.0000,1
979,38.177,0.0000,0.0000,1
980,38.209,0.0000,0.0000,1
981,38.242,0.0000,0.0000,1
982,38.275,0.0000,0.0000,1
983,38.308,0.0000,0.0000,1
984,38.341,0.0000,0.0000,1
985,38.376,0.0000,0.0000,1
986,38.409,0.0000,0.0000,1
987,38.442,0.0000,0.0000,1
988,38.475,0.0000,0.0000,1
989,38.508,0.0000,0.0000,1
990,38.541,0.0000,0.0000,1
991,38.574,0.0000,0.0000,1
992,38.607,0.0000,0.0000,1
993,38.640,0.0000,0.0000,1
994,38.674,0.0000,0.0000,1
995,38.710,0.0000,0.0000,1
996,38.743,0.0000,0.0000,1
997,38.775,0.0000,0.0000,1
998,38.808,0.0000,0.0000,1
999,38.841,0.0000,0.0000,1
1000,38.874,0.0000,0.0000,1
1001,38.907,0.0000,0.0000,1
1002,38.964,0.0000,0.0000,1
1003,39.003,0.0000,0.0000,1
1004,39.035,0.0000,0.0000,1
1005,39.074,0.0000,0.0000,1
1006,39.106,0.0000,0.0000,1
1007,39.138,3.2320,1.7865,0
1008,39.173,0.0000,0.0000,1
1009,39.207,0.0000,0.0000,1
1010,39.240,0.0000,0.0000,1
1011,39.273,0.0000,0.0000,1
1012,39.306,0.0000,0.0000,1
1013,39.339,3.2320,1.7883,0
1014,39.374,0.0000,0.0000,1
1015,39.411,0.0000,0.0000,1
1016,39.444,0.0000,0.0000,1
1017,39.478,0.0000,0.0000,1
1018,39.513,0.0000,0.0000,1
1019,39.546,0.0000,0.0000,1
1020,39.580,0.0000,0.0000,1
1021,39.613,0.0000,0.0000,1
1022,39.646,0.0000,0.0000,1
1023,39.679,0.0000,0.0000,1
1024,39.712,0.0000,0.0000,1
1025,39.750,0.0000,0.0000,1
1026,39.783,0.0000,0.0000,1
1027,39.816,0.0000,0.0000,1
1028,39.848,0.0000,0.0000,1
1029,39.881,0.0000,0.0000,1
1030,39.914,0.0000,0.0000,1
1031,39.946,0.0000,0.0000,1
1032,39.978,0.0000,0.0000,1
1033,40.011,0.0000,0.0000,1
1034,40.045,0.0000,0.0000,1
1035,40.083,0.0000,0.0000,1
1036,40.115,0.0000,0.0000,1
1037,40.148,0.0000,0.0000,1
1038,40.180,0.0000,0.0000,1
1039,40.213,0.0000,0.0000,1
1040,40.245,0.0000,0.0000,1
1041,40.278,0.0000,0.0000,1
1042,40.311,0.0000,0.0000,1
1043,40.344,0.0000,0.0000,1
1044,40.376,0.0000,0.0000,1
1045,40.413,0.0000,0.0000,1
1046,40.446,0.0000,0.0000,1
1047,40.478,0.0000,0.0000,1
1048,40.511,0.0000,0.0000,1
1049,40.544,0.0000,0.0000,1
1050,40.577,0.0000,0.0000,1
1051,40.610,0.0000,0.0000,1
1052,40.643,0.0000,0.0000,1
1053,40.675,0.0000,0.0000,1
1054,40.708,0.0000,0.0000,1
1055,40.743,0.0000,0.0000,1
1056,40.776,0.0000,0.0000,1
1057,40.808,0.0000,0.0000,1
1058,40.840,0.0000,0.0000,1
1059,40.872,0.0000,0.0000,1
1060,40.905,0.0000,0.0000,1
1061,40.936,3.2320,1.7979,0
1062,40.971,3.2340,1.7780,0
1063,41.005,0.0000,0.0000,1
1064,41.037,3.2320,1.7659,0
1065,41.074,0.0000,0.0000,1
1066,41.107,0.0000,0.0000,1
1067,41.139,0.0000,0.0000,1
1068,41.172,0.0000,0.0000,1
1069,41.205,0.0000,0.0000,1
1070,41.237,3.2320,1.7738,0
1071,41.271,0.0000,0.0000,1
1072,41.304,3.2320,1.7607,0
1073,41.339,0.0000,0.0000,1
1074,41.372,0.0000,0.0000,1
1075,41.408,0.0000,0.0000,1
1076,41.442,0.0000,0.0000,1
1077,41.475,0.0000,0.0000,1
1078,41.508,0.0000,0.0000,1
1079,41.542,0.0000,0.0000,1
1080,41.575,0.0000,0.0000,1
1081,41.609,0.0000,0.0000,1
1082,41.643,0.0000,0.0000,1
1083,41.677,0.0000,0.0000,1
1084,41.710,0.0000,0.0000,1
1085,41.746,0.0000,0.0000,1
1086,41.779,0.0000,0.0000,1
1087,41.812,0.0000,0.0000,1
1088,41.845,0.0000,0.0000,1
1089,41.878,0.0000,0.0000,1
1090,41.911,0.0000,0.0000,1
1091,41.944,0.0000,0.0000,1
1092,41.976,0.0000,0.0000,1
1093,42.009,0.0000,0.0000,1
1094,42.043,0.0000,0.0000,1
1095,42.080,0.0000,0.0000,1
1096,42.113,0.0000,0.0000,1
1097,42.146,0.0000,0.0000,1
1098,42.178,0.0000,0.0000,1
1099,42.212,0.0000,0.0000,1
1100,42.244,0.0000,0.0000,1
1101,42.277,0.0000,0.0000,1
1102,42.310,0.0000,0.0000,1
1103,42.342,0.0000,0.0000,1
1104,42.375,0.0000,0.0000,1
1105,42.411,0.0000,0.0000,1
1106,42.444,0.0000,0.0000,1
1107,42.477,0.0000,0.0000,1
1108,42.511,0.0000,0.0000,1
1109,42.543,0.0000,0.0000,1
1110,42.576,0.0000,0.0000,1
1111,42.609,0.0000,0.0000,1
1112,42.643,0.0000,0.0000,1
1113,42.676,0.0000,0.0000,1
1114,42.709,0.0000,0.0000,1
1115,42.746,0.0000,0.0000,1
1116,42.778,0.0000,0.0000,1
1117,42.811,0.0000,0.0000,1
1118,42.844,0.0000,0.0000,1
1119,42.877,0.0000,0.0000,1
1120,42.910,0.0000,0.0000,1
1121,42.943,0.0000,0.0000,1
1122,42.976,0.0000,0.0000,1
1123,43.009,0.0000,0.0000,1
1124,43.042,0.0000,0.0000,1
1125,43.079,0.0000,0.0000,1
1126,43.112,0.0000,0.0000,1
1127,43.146,0.0000,0.0000,1
1128,43.179,0.0000,0.0000,1
1129,43.211,0.0000,0.0000,1
1130,43.244,0.0000,0.0000,1
1131,43.277,0.0000,0.0000,1
1132,43.309,0.0000,0.0000,1
1133,43.342,0.0000,0.0000,1
1134,43.375,0.0000,0.0000,1
1135,43.412,0.0000,0.0000,1
1136,43.445,0.0000,0.0000,1
1137,43.477,0.0000,0.0000,1
1138,43.510,0.0000,0.0000,1
1139,43.543,0.0000,0.0000,1
1140,43.576,0.0000,0.0000,1
1141,43.609,0.0000,0.0000,1
1142,43.642,0.0000,0.0000,1
1143,43.674,0.0000,0.0000,1
1144,43.708,0.0000,0.0000,1
1145,43.744,0.0000,0.0000,1
1146,43.777,0.0000,0.0000,1
1147,43.810,0.0000,0.0000,1
1148,43.843,0.0000,0.0000,1
1149,43.875,0.0000,0.0000,1
1150,43.908,0.0000,0.0000,1
1151,43.941,0.0000,0.0000,1
1152,43.974,0.0000,0.0000,1
1153,44.007,0.0000,0.0000,1
1154,44.040,0.0000,0.0000,1
1155,44.077,0.0000,0.0000,1
1156,44.110,0.0000,0.0000,1
1157,44.143,0.0000,0.0000,1
1158,44.175,0.0000,0.0000,1
1159,44.207,0.0000,0.0000,1
1160,44.240,0.0000,0.0000,1
1161,44.274,0.0000,0.0000,1
1162,44.307,0.0000,0.0000,1
1163,44.340,0.0000,0.0000,1
1164,44.372,0.0000,0.0000,1
1165,44.408,0.0000,0.0000,1
1166,44.440,0.0000,0.0000,1
1167,44.473,0.0000,0.0000,1
1168,44.505,0.0000,0.0000,1
1169,44.537,0.0000,0.0000,1
1170,44.569,3.2300,1.7400,0
1171,44.603,0.0000,0.0000,1
1172,44.636,0.0000,0.0000,1
1173,44.668,3.2320,1.7411,0
1174,44.703,0.0000,0.0000,1
1175,44.738,0.0000,0.0000,1
1176,44.771,0.0000,0.0000,1
1177,44.804,0.0000,0.0000,1
1178,44.836,0.0000,0.0000,1
1179,44.869,0.0000,1.4788,0
1180,44.904,0.0000,0.0000,1
1181,44.937,0.0000,0.0000,1
1182,44.970,0.0000,0.0000,1
1183,45.003,0.0000,0.0000,1
1184,45.036,0.0000,0.0000,1
1185,45.072,0.0000,0.0000,1
1186,45.105,0.0000,0.0000,1
1187,45.138,0.0000,0.0000,1
1188,45.172,0.0000,0.0000,1
1189,45.205,0.0000,0.0000,1
1190,45.239,0.0000,0.0000,1
1191,45.273,0.0000,0.0000,1
1192,45.307,0.0000,0.0000,1
1193,45.340,0.0000,0.0000,1
1194,45.373,0.0000,0.0000,1
1195,45.411,0.0000,0.0000,1
1196,45.444,0.0000,0.0000,1
1197,45.477,0.0000,0.0000,1
1198,45.509,0.0000,0.0000,1
1199,45.542,0.0000,0.0000,1
1200,45.575,0.0000,0.0000,1
1201,45.608,0.0000,0.0000,1
1202,45.641,0.0000,0.0000,1
1203,45.674,0.0000,0.0000,1
1204,45.707,0.0000,0.0000,1
1205,45.744,0.0000,0.0000,1
1206,45.777,0.0000,0.0000,1
1207,45.809,0.0000,0.0000,1
1208,45.842,0.0000,0.0000,1
1209,45.875,0.0000,0.0000,1
1210,45.908,0.0000,0.0000,1
1211,45.941,0.0000,0.0000,1
1212,45.974,0.0000,0.0000,1
1213,46.007,0.0000,0.0000,1
1214,46.039,0.0000,0.0000,1
1215,46.077,0.0000,0.0000,1
1216,46.110,0.0000,0.0000,1
1217,46.143,0.0000,0.0000,1
1218,46.176,0.0000,0.0000,1
1219,46.208,0.0000,0.0000,1
1220,46.241,0.0000,0.0000,1
1221,46.273,0.0000,0.0000,1
1222,46.306,0.0000,0.0000,1
1223,46.339,0.0000,0.0000,1
1224,46.372,0.0000,0.0000,1
1225,46.409,0.0000,0.0000,1
1226,46.442,0.0000,0.0000,1
1227,46.474,0.0000,0.0000,1
1228,46.507,0.0000,0.0000,1
1229,46.539,0.0000,0.0000,1
1230,46.572,0.0000,0.0000,1
1231,46.605,0.0000,0.0000,1
1232,46.638,0.0000,0.0000,1
1233,46.672,0.0000,0.0000,1
1234,46.705,0.0000,0.0000,1
1235,46.741,0.0000,0.0000,1
1236,46.773,0.0000,0.0000,1
1237,46.806,0.0000,0.0000,1
1238,46.839,0.0000,0.0000,1
1239,46.871,0.0000,0.0000,1
1240,46.904,0.0000,0.0000,1
1241,46.937,0.0000,0.0000,1
1242,46.969,0.0000,0.0000,1
1243,47.001,0.0000,0.0000,1
1244,47.033,0.0000,1.2152,0
1245,47.072,0.0000,0.0000,1
1246,47.104,0.0000,0.0000,1
1247,47.137,0.0000,0.0000,1
1248,47.170,0.0000,0.0000,1
1249,47.203,0.0000,0.0000,1
1250,47.236,0.0000,0.0000,1
1251,47.265,0.0000,0.9683,0
1252,47.299,0.0000,0.7674,0
1253,47.333,0.0000,0.5744,0
1254,47.366,0.0000,0.0000,1
1255,47.401,0.0000,0.0000,1
1256,47.434,0.0000,0.0000,1
1257,47.466,0.0000,0.3815,0
1258,47.499,0.0000,0.2236,0
1259,47.532,0.0000,0.0842,0
1260,47.565,0.0000,-0.0620,0
1261,47.600,0.0000,0.0000,1
1262,47.633,0.0000,-0.1879,0
1263,47.666,0.0000,0.0000,1
1264,47.698,2.4480,-0.0956,0
1265,47.736,0.0000,0.0000,1
1266,47.768,0.0000,0.0000,1
1267,47.801,0.0000,0.0000,1
1268,47.834,0.0000,0.0000,1
1269,47.867,0.0000,0.0000,1
1270,47.900,0.0000,0.0000,1
1271,47.933,0.0000,0.0000,1
1272,47.965,0.0000,0.0000,1
1273,47.998,0.0000,0.0000,1
1274,48.031,0.0000,0.0000,1
1275,48.067,0.0000,0.0000,1
1276,48.100,0.0000,0.0000,1
1277,48.133,0.0000,0.0000,1
1278,48.165,0.0000,0.0000,1
1279,48.198,0.0000,0.0000,1
1280,48.231,0.1700,-0.1999,0
1281,48.266,0.0000,0.0000,1
1282,48.299,0.0000,-0.3019,0
1283,48.335,0.0000,0.0000,1
1284,48.369,0.0000,0.0000,1
1285,48.407,0.0000,0.0000,1
1286,48.440,0.0000,0.0000,1
1287,48.473,0.0000,0.0000,1
1288,48.507,0.0000,0.0000,1
1289,48.540,0.0000,0.0000,1
1290,48.573,0.0000,0.0000,1
1291,48.606,0.0000,0.0000,1
1292,48.638,0.0000,0.0000,1
1293,48.672,0.0000,0.0000,1
1294,48.704,0.0000,0.0000,1
1295,48.742,0.0000,0.0000,1
1296,48.775,0.0000,0.0000,1
1297,48.807,0.0000,0.0000,1
1298,48.840,0.0000,0.0000,1
1299,48.873,0.0000,0.0000,1
1300,48.905,0.0000,0.0000,1
1301,48.938,0.0000,0.0000,1
1302,48.971,0.0000,0.0000,1
1303,49.004,0.0000,0.0000,1
1304,49.037,0.0000,0.0000,1
1305,49.075,0.0000,0.0000,1
1306,49.109,0.0000,0.0000,1
1307,49.142,0.0000,0.0000,1
1308,49.176,0.0000,0.0000,1
1309,49.208,0.0000,0.0000,1
1310,49.240,0.0000,0.0000,1
1311,49.272,0.0000,0.0000,1
1312,49.304,0.0000,0.0000,1
1313,49.336,0.0000,0.0000,1
1314,49.367,0.0000,0.0000,1
1315,49.404,0.0000,0.0000,1
1316,49.436,0.0000,0.0000,1
1317,49.468,0.0000,0.0000,1
1318,49.500,0.0000,0.0000,1
1319,49.533,0.0000,0.0000,1
1320,49.565,0.0000,0.0000,1
1321,49.598,0.0000,0.0000,1
1322,49.630,0.0000,0.0000,1
1323,49.663,0.0000,0.0000,1
1324,49.696,0.0000,0.0000,1
1325,49.732,0.0000,0.0000,1
1326,49.765,0.0000,0.0000,1
1327,49.798,0.0000,0.0000,1
1328,49.830,0.0000,0.0000,1
1329,49.863,0.0000,0.0000,1
1330,49.895,0.0000,0.0000,1
1331,49.927,0.0000,0.0000,1
1332,49.959,0.0000,0.0000,1
1333,49.999,0.0000,0.0000,1
1334,50.037,0.0000,0.0000,1
1335,50.068,0.0000,0.0000,1
1336,50.100,0.0000,0.0000,1
1337,50.130,0.0000,0.0000,1
1338,50.162,0.0000,0.0000,1
1339,50.194,0.0000,0.0000,1
1340,50.226,0.0000,0.0000,1
1341,50.257,0.0000,0.0000,1
1342,50.288,0.0000,0.0000,1
1343,50.320,0.0000,0.0000,1
1344,50.351,0.0000,0.0000,1
1345,50.385,0.0000,0.0000,1
1346,50.416,0.0000,0.0000,1
1347,50.446,0.0000,0.0000,1
1348,50.477,0.0000,0.0000,1
1349,50.507,0.0000,0.0000,1
1350,50.538,0.0000,0.0000,1
1351,50.568,0.0000,0.0000,1
1352,50.599,0.0000,0.0000,1
1353,50.630,0.0000,0.0000,1
1354,50.661,0.0000,0.0000,1
1355,50.697,0.0000,0.0000,1
1356,50.728,0.0000,0.0000,1
1357,50.759,0.0000,0.0000,1
1358,50.791,0.0000,0.0000,1
1359,50.822,0.0000,0.0000,1
1360,50.853,0.0000,0.0000,1
1361,50.884,0.0000,0.0000,1
1362,50.916,0.0000,0.0000,1
1363,50.948,0.0000,0.0000,1
1364,50.979,0.0000,0.0000,1
1365,51.013,0.0000,0.0000,1
1366,51.044,0.0000,0.0000,1
1367,51.076,0.0000,0.0000,1
1368,51.107,0.0000,0.0000,1
1369,51.138,0.0000,0.0000,1
1370,51.168,0.0000,0.0000,1
1371,51.199,0.0000,0.0000,1
1372,51.229,0.0000,0.0000,1
1373,51.260,0.0000,0.0000,1
1374,51.291,0.0000,0.0000,1
1375,51.326,0.0000,0.0000,1
1376,51.356,0.0000,0.0000,1
1377,51.387,0.0000,0.0000,1
1378,51.417,0.0000,0.0000,1
1379,51.447,0.0000,0.0000,1
1380,51.477,0.0000,0.0000,1
1381,51.507,0.0000,0.0000,1
1382,51.537,0.0000,0.0000,1
1383,51.567,0.0000,0.0000,1
1384,51.597,0.0000,0.0000,1
1385,51.632,0.0000,0.0000,1
1386,51.662,0.0000,0.0000,1
1387,51.691,0.0000,0.0000,1
1388,51.722,0.0000,0.0000,1
1389,51.751,0.0000,0.0000,1
1390,51.782,0.0000,0.0000,1
1391,51.812,0.0000,0.0000,1
1392,51.842,0.0000,0.0000,1
1393,51.872,0.0000,0.0000,1
1394,51.902,0.0000,0.0000,1
1395,51.933,0.0000,0.0000,1
1396,51.963,0.0000,0.0000,1
1397,51.993,0.0000,0.0000,1
1398,52.023,0.0000,0.0000,1
1399,52.053,0.0000,0.0000,1
1400,52.085,0.0000,0.0000,1
1401,52.115,0.0000,0.0000,1
1402,52.146,0.0000,0.0000,1
1403,52.176,0.0000,0.0000,1
1404,52.207,0.0000,0.0000,1
1405,52.238,0.0000,0.0000,1
1406,52.268,0.0000,0.0000,1
1407,52.297,0.0000,0.0000,1
1408,52.326,0.0000,0.0000,1
1409,52.356,0.0000,0.0000,1
1410,52.386,0.0000,0.0000,1
1411,52.415,0.0000,0.0000,1
1412,52.445,0.0000,0.0000,1
1413,52.475,0.0000,0.0000,1
1414,52.504,0.0000,0.0000,1
1415,52.537,0.0000,0.0000,1
1416,52.567,0.0000,0.0000,1
1417,52.596,0.0000,0.0000,1
1418,52.625,0.0000,0.0000,1
1419,52.655,0.0000,0.0000,1
1420,52.685,0.0000,0.0000,1
1421,52.715,0.0000,0.0000,1
1422,52.745,0.0000,0.0000,1
1423,52.774,0.0000,0.0000,1
1424,52.804,0.0000,0.0000,1
1425,52.837,0.0000,0.0000,1
1426,52.867,0.0000,0.0000,1
1427,52.896,0.0000,0.0000,1
1428,52.926,0.0000,0.0000,1
1429,52.955,0.0000,0.0000,1
1430,52.985,0.0000,0.0000,1
1431,53.015,0.0000,0.0000,1
1432,53.045,0.0000,0.0000,1
1433,53.075,0.0000,0.0000,1
1434,53.105,0.0000,0.0000,1
1435,53.137,0.0000,0.0000,1
1436,53.167,0.0000,0.0000,1
1437,53.196,0.0000,0.0000,1
1438,53.225,0.0000,0.0000,1
1439,53.255,0.0000,0.0000,1
1440,53.285,0.0000,0.0000,1
1441,53.314,0.0000,0.0000,1
1442,53.345,0.0000,0.0000,1
1443,53.374,0.0000,0.0000,1
1444,53.404,0.0000,0.0000,1
1445,53.437,0.0000,0.0000,1
1446,53.467,0.0000,0.0000,1
1447,53.495,0.0000,0.0000,1
1448,53.525,0.0000,0.0000,1
1449,53.555,0.0000,0.0000,1
1450,53.585,0.0000,0.0000,1
1451,53.614,0.0000,0.0000,1
1452,53.645,0.0000,0.0000,1
1453,53.675,0.0000,0.0000,1
1454,53.705,0.0000,0.0000,1
1455,53.739,0.0000,0.0000,1
1456,53.768,0.0000,0.0000,1
1457,53.797,0.0000,0.0000,1
1458,53.826,0.0000,0.0000,1
1459,53.856,0.0000,0.0000,1
1460,53.885,0.0000,0.0000,1
1461,53.915,0.0000,0.0000,1
1462,53.945,0.0000,0.0000,1
1463,53.976,0.0000,0.0000,1
1464,54.006,0.0000,0.0000,1
1465,54.039,0.0000,0.0000,1
1466,54.069,0.0000,0.0000,1
1467,54.099,0.0000,0.0000,1
1468,54.127,0.0000,0.0000,1
1469,54.157,0.0000,0.0000,1
1470,54.186,0.0000,-0.4090,0
1471,54.219,0.0000,-0.5047,0
1472,54.250,0.0000,-0.5794,0
1473,54.281,0.0000,-0.6553,0
1474,54.313,0.0000,-0.7300,0
1475,54.346,0.0000,-0.7863,0
1476,54.378,0.0000,-0.8380,0
1477,54.410,0.0000,-0.8939,0
1478,54.442,0.0000,-0.9376,0
1479,54.474,0.0000,-0.9719,0
1480,54.505,0.0000,-1.0110,0
1481,54.537,0.0000,-1.0450,0
1482,54.568,0.0000,-1.0678,0
1483,54.599,0.0000,-1.0928,0
1484,54.630,0.0000,-1.1183,0
1485,54.662,0.0000,-1.1339,0
1486,54.694,0.0000,-1.1479,0
1487,54.724,0.0000,-1.1654,0
1488,54.755,0.0000,-1.1765,0
1489,54.786,0.0000,-1.1828,0
1490,54.818,0.0000,-1.1928,0
1491,54.848,0.0000,-1.2005,0
1492,54.879,0.0000,-1.2021,0
1493,54.910,0.0000,-1.2057,0
1494,54.941,0.0000,-1.2101,0
1495,54.975,0.0000,-1.2092,0
1496,55.007,0.0000,-1.2078,0
1497,55.038,0.0000,-1.2089,0
1498,55.069,0.0000,-1.2066,0
1499,55.101,0.0000,-1.2019,0
1500,55.134,0.0000,-1.1997,0
1501,55.166,0.0000,-1.1965,0
1502,55.197,0.0000,-1.1900,0
1503,55.228,0.0000,-1.1849,0
1504,55.261,0.0000,-1.1806,0
1505,55.295,0.0000,-1.1734,0
1506,55.327,0.0000,-1.1661,0
1507,55.359,0.0000,-1.1605,0
1508,55.391,0.0000,-1.1532,0
1509,55.422,0.0000,-1.1445,0
1510,55.453,0.0000,-1.1376,0
1511,55.485,0.0000,-1.1301,0
1512,55.515,0.0000,-1.1209,0
1513,55.546,0.0000,-1.1127,0
1514,55.578,0.0000,-1.1051,0
1515,55.610,0.0000,-1.0959,0
1516,55.641,0.0000,-1.0867,0
1517,55.671,0.0000,-1.0787,0
1518,55.702,0.0000,-1.0697,0
1519,55.733,0.0000,-1.0601,0
1520,55.763,0.0000,-1.0516,0
1521,55.795,0.0000,-1.0429,0
1522,55.825,0.0000,-1.0332,0
1523,55.857,0.0000,-1.0242,0
1524,55.887,0.0000,-1.0156,0
1525,55.920,0.0000,-1.0061,0
1526,55.951,0.0000,-0.9968,0
1527,55.981,0.0000,-0.9882,0
1528,56.012,0.0000,-0.9791,0
1529,56.044,0.0000,-0.9697,0
1530,56.075,0.0000,-0.9610,0
1531,56.105,0.0000,-0.9522,0
1532,56.136,0.0000,-0.9429,0
1533,56.167,0.0000,-0.9340,0
1534,56.197,0.0000,-0.9255,0
1535,56.229,0.0000,-0.9165,0
1536,56.260,0.0000,-0.9076,0
1537,56.290,0.0000,-0.8992,0
1538,56.320,0.0000,-0.8905,0
1539,56.351,0.0000,-0.8817,0
1540,56.381,0.0000,-0.8734,0
1541,56.412,0.0000,-0.8650,0
1542,56.443,0.0000,-0.8564,0
1543,56.473,0.0000,-0.8481,0
1544,56.504,0.0000,-0.8400,0
1545,56.537,0.0000,-0.8317,0
1546,56.567,0.0000,-0.8235,0
1547,56.598,0.0000,-0.8156,0
1548,56.629,0.0000,-0.8076,0
1549,56.660,0.0000,-0.7995,0
1550,56.691,0.0000,-0.7917,0
1551,56.722,0.0000,-0.7840,0
1552,56.753,0.0000,-0.7761,0
1553,56.783,0.0000,-0.7685,0
1554,56.813,0.0000,-0.7610,0
1555,56.845,0.0000,-0.7534,0
1556,56.877,0.0000,-0.7459,0
1557,56.907,0.0000,-0.7386,0
1558,56.937,0.0000,-0.7313,0
1559,56.967,0.0000,-0.7240,0
1560,56.997,0.0000,-0.7168,0
1561,57.028,0.0000,-0.7098,0
1562,57.058,0.0000,-0.7026,0
1563,57.091,0.0000,-0.6957,0
1564,57.122,0.0000,-0.6888,0
1565,57.154,0.0000,-0.6819,0
1566,57.185,0.0000,-0.6751,0
1567,57.214,0.0000,-0.6684,0
1568,57.245,0.0000,-0.6618,0
1569,57.274,0.0000,-0.6551,0
1570,57.303,1.6240,-0.5200,0
1571,57.333,1.5820,-0.3959,0
1572,57.363,1.9120,-0.2462,0
1573,57.392,0.9980,-0.1911,0
1574,57.423,3.2260,0.0321,0
1575,57.455,1.5000,0.1073,0
1576,57.486,1.4620,0.1839,0
1577,57.516,1.5340,0.2314,0
1578,57.546,1.7360,0.2966,0
1579,57.577,3.2300,0.4966,0
1580,57.605,1.5960,0.5354,0
1581,57.639,1.6680,0.5712,0
1582,57.668,1.6080,0.6012,0
1583,57.698,1.6240,0.6326,0
1584,57.728,0.0000,0.5273,0
1585,57.760,0.0000,0.4270,0
1586,57.791,0.0000,0.3294,0
1587,57.820,0.0000,0.2473,0
1588,57.850,0.0000,0.1735,0
1589,57.880,0.0000,0.0991,0
1590,57.910,0.0000,0.0343,0
1591,57.940,0.0000,-0.0202,0
1592,57.970,0.0000,-0.0752,0
1593,58.001,0.0000,-0.1262,0
1594,58.031,0.0000,-0.1671,0
1595,58.067,0.0000,-0.2066,0
1596,58.098,0.0000,-0.2459,0
1597,58.128,0.0000,-0.2773,0
1598,58.159,0.0000,-0.3049,0
1599,58.189,0.0000,-0.3342,0
1600,58.219,0.0000,-0.3586,0
1601,58.250,0.0000,-0.3779,0
1602,58.280,0.0000,-0.3984,0
1603,58.310,0.0000,-0.4173,0
1604,58.341,0.0000,-0.4309,0
1605,58.374,0.0000,-0.4444,0
1606,58.405,0.0000,-0.4585,0
1607,58.436,0.0000,-0.4684,0
1608,58.466,0.0000,-0.4766,0
1609,58.497,0.0000,-0.4862,0
1610,58.527,0.0000,-0.4935,0
1611,58.558,0.0000,-0.4981,0
1612,58.589,0.0000,-0.5038,0
1613,58.620,0.0000,-0.5090,0
1614,58.651,0.0000,-0.5113,0
1615,58.684,0.0000,-0.5139,0
1616,58.714,0.0000,-0.5171,0
1617,58.744,0.0000,-0.5181,0
1618,58.776,0.0000,-0.5183,0
1619,58.807,1.5340,-0.3981,0
1620,58.837,1.5800,-0.2803,0
1621,58.867,1.6000,-0.1604,0
1622,58.897,0.0000,-0.1877,0
1623,58.927,0.0000,-0.2201,0
1624,58.958,1.7960,-0.1061,0
1625,58.991,1.6200,-0.0054,0
1626,59.022,1.6200,0.0925,0
1627,59.052,1.6320,0.1679,0
1628,59.085,0.5800,0.1561,0
1629,59.116,1.6260,0.2371,0
1630,59.147,1.6400,0.2982,0
1631,59.177,1.6340,0.3611,0
1632,59.208,1.6320,0.4257,0
1633,59.240,0.0020,0.3432,0
1634,59.270,0.0000,0.2637,0
1635,59.302,0.0000,0.1914,0
1636,59.333,0.0000,0.1289,0
1637,59.364,0.0000,0.0694,0
1638,59.395,0.0000,0.0136,0
1639,59.426,0.0000,-0.0343,0
1640,59.458,0.9640,-0.0017,0
1641,59.489,3.2340,0.2075,0
1642,59.521,3.2320,0.4110,0
1643,59.553,1.4880,0.4679,0
1644,59.585,1.6760,0.5120,0
1645,59.619,1.7000,0.5448,0
1646,59.651,2.4620,0.6613,0
1647,59.683,3.2320,0.8223,0
1648,59.715,3.2300,0.9550,0
1649,59.746,1.6360,0.9675,0
1650,59.776,1.6680,0.9776,0
1651,59.808,1.6780,0.9596,0
1652,59.840,2.4780,1.0248,0
1653,59.872,3.2320,1.1585,0
1654,59.904,3.2300,1.2610,0
1655,59.938,1.6760,1.2328,0
1656,59.969,1.6620,1.2162,0
1657,60.001,1.6560,1.1787,0
1658,60.033,3.2120,1.2690,0
1659,60.066,3.2320,1.3732,0
1660,60.097,3.2320,1.4645,0
1661,60.128,3.2320,1.5288,0
1662,60.159,3.2300,1.5986,0
1663,60.190,0.0000,1.4137,0
1664,60.222,0.0000,1.2198,0
1665,60.255,1.1860,1.1177,0
1666,60.286,1.6140,1.0935,0
1667,60.317,1.6280,1.0775,0
1668,60.349,1.6320,1.0300,0
1669,60.380,0.0000,0.8705,0
1670,60.411,0.0000,0.7417,0
1671,60.443,0.0000,0.5886,0
1672,60.473,1.8300,0.5988,0
1673,60.504,1.6220,0.6243,0
1674,60.535,1.6320,0.6374,0
1675,60.568,1.1980,0.5890,0
1676,60.599,0.0000,0.4730,0
1677,60.629,0.0000,0.3698,0
1678,60.660,0.0000,0.2435,0
1679,60.691,0.0000,0.1445,0
1680,60.721,0.0000,0.0735,0
1681,60.753,1.6980,0.1173,0
1682,60.783,1.6360,0.1542,0
1683,60.815,1.6460,0.2237,0
1684,60.846,1.2140,0.2297,0
1685,60.878,0.0000,0.1195,0
1686,60.909,0.0000,0.0447,0
1687,60.941,0.0000,-0.0304,0
1688,60.972,0.0000,-0.1179,0
1689,61.005,0.0000,-0.1800,0
1690,61.036,1.5960,-0.1030,0
1691,61.070,1.6320,-0.0460,0
1692,61.102,1.6380,0.0220,0
1693,61.135,0.5300,0.0017,0
1694,61.167,0.0000,-0.0787,0
1695,61.202,0.0000,-0.1550,0
1696,61.234,0.0000,-0.2086,0
1697,61.266,0.0000,-0.2637,0
1698,61.298,0.0000,-0.3241,0
1699,61.330,0.0000,-0.3670,0
1700,61.362,0.0000,-0.4032,0
1701,61.393,0.0000,-0.4482,0
1702,61.424,0.0000,-0.4838,0
1703,61.455,0.0000,-0.5077,0
1704,61.488,0.0000,-0.5383,0
1705,61.522,0.0000,-0.5677,0
1706,61.554,0.0000,-0.5845,0
1707,61.586,0.0000,-0.6032,0
1708,61.618,0.0000,-0.6261,0
1709,61.650,0.0000,-0.6392,0
1710,61.682,0.0000,-0.6492,0
1711,61.713,0.0000,-0.6651,0
1712,61.745,0.0000,-0.6761,0
1713,61.776,0.0000,-0.6807,0
1714,61.807,0.0000,-0.6898,0
1715,61.842,0.0000,-0.6988,0
1716,61.874,0.0000,-0.7007,0
1717,61.906,0.0000,-0.7042,0
1718,61.938,0.0000,-0.7106,0
1719,61.970,0.0000,-0.7115,0
1720,62.002,0.0000,-0.7109,0
1721,62.034,0.6300,-0.6643,0
1722,62.067,0.8060,-0.6041,0
1723,62.099,1.2560,-0.5058,0
1724,62.131,1.8280,-0.3754,0
1725,62.166,1.5220,-0.2794,0
1726,62.198,1.5540,-0.1819,0
1727,62.230,1.5520,-0.1007,0
1728,62.262,1.6440,-0.0213,0
1729,62.294,1.3340,0.0347,0
1730,62.326,0.0540,-0.0189,0
1731,62.357,1.5800,0.0421,0
1732,62.388,2.4320,0.1683,0
1733,62.421,2.7700,0.3319,0
1734,62.453,3.1520,0.5025,0
1735,62.488,3.2120,0.6508,0
1736,62.521,3.2260,0.8039,0
1737,62.554,3.2280,0.9434,0
1738,62.586,3.2280,1.0538,0
1739,62.619,3.2300,1.1625,0
1740,62.651,3.2280,1.2696,0
1741,62.684,3.2300,1.3529,0
1742,62.716,3.2300,1.4273,0
1743,62.748,3.2320,1.5063,0
1744,62.780,3.2320,1.5703,0
1745,62.815,3.2320,1.6203,0
1746,62.847,3.2280,1.6744,0
1747,62.879,3.2280,1.7228,0
1748,62.911,3.2300,1.7561,0
1749,62.943,3.2300,1.7903,0
1750,62.975,3.2240,1.8250,0
1751,63.006,3.2200,1.8469,0
1752,63.037,3.2200,1.8650,0
1753,63.072,3.2100,1.8866,0
1754,63.104,2.9300,1.8785,0
1755,63.139,2.3840,1.8213,0
1756,63.171,2.2340,1.7591,0
1757,63.204,2.1020,1.6886,0
1758,63.235,2.1740,1.6256,0
1759,63.265,2.6960,1.6110,0
1760,63.296,3.2000,1.6395,0
1761,63.328,3.2240,1.6669,0
1762,63.358,3.2200,1.6908,0
1763,63.389,1.6740,1.5878,0
1764,63.424,2.4020,1.5466,0
1765,63.456,2.1040,1.4772,0
1766,63.487,2.2320,1.4354,0
1767,63.518,2.7960,1.4379,0
1768,63.550,3.1900,1.4631,0
1769,63.580,3.0260,1.4840,0
1770,63.612,2.3640,1.4514,0
1771,63.642,1.5940,1.3446,0
1772,63.672,1.7680,1.2600,0
1773,63.703,2.3960,1.2397,0
1774,63.733,2.8960,1.2580,0
1775,63.767,3.0580,1.2864,0
1776,63.797,3.1660,1.3258,0
1777,63.828,2.4680,1.3033,0
1778,63.858,1.7740,1.2218,0
1779,63.889,1.3320,1.1092,0
1780,63.920,0.3800,0.9299,0
1781,63.950,1.8100,0.8758,0
1782,63.982,1.8880,0.8305,0
1783,64.012,1.3040,0.7574,0
1784,64.042,0.6700,0.6317,0
1785,64.077,0.8120,0.5131,0
1786,64.107,0.5760,0.3977,0
1787,64.138,1.0040,0.3332,0
1788,64.168,1.4360,0.2929,0
1789,64.197,1.5180,0.2696,0
1790,64.227,1.3800,0.2505,0
1791,64.257,1.1880,0.2038,0
1792,64.287,1.3640,0.1697,0
1793,64.318,1.6140,0.1729,0
1794,64.347,1.7500,0.1847,0
1795,64.380,1.7800,0.1878,0
1796,64.411,1.4960,0.1765,0
1797,64.441,0.5540,0.0949,0
1798,64.471,0.0000,-0.0376,0
1799,64.502,1.0920,-0.0752,0
1800,64.533,1.4480,-0.0679,0
1801,64.563,1.5200,-0.0509,0
1802,64.594,1.3280,-0.0623,0
1803,64.625,1.0900,-0.0887,0
1804,64.655,1.2500,-0.0931,0
1805,64.686,1.3280,-0.0989,0
1806,64.717,1.4260,-0.0964,0
1807,64.746,1.4660,-0.0827,0
1808,64.780,1.3800,-0.0809,0
1809,64.811,1.2580,-0.0938,0
1810,64.842,0.8880,-0.1294,0
1811,64.873,0.7340,-0.1744,0
1812,64.903,1.0940,-0.1946,0
1813,64.934,1.4620,-0.1788,0
1814,64.964,1.5040,-0.1531,0
1815,64.997,1.3540,-0.1475,0
1816,65.028,0.0000,-0.2532,0
1817,65.059,0.6340,-0.2958,0
1818,65.091,1.2000,-0.2971,0
1819,65.122,1.3640,-0.2772,0
1820,65.153,1.6320,-0.2307,0
1821,65.184,1.9780,-0.1700,0
1822,65.215,2.1520,-0.0987,0
1823,65.246,1.9660,-0.0382,0
1824,65.277,1.4460,-0.0313,0
1825,65.311,1.4120,-0.0354,0
1826,65.342,1.1320,-0.0545,0
1827,65.373,0.9500,-0.0842,0
1828,65.403,1.0820,-0.1107,0
1829,65.434,1.3160,-0.1133,0
1830,65.466,1.2580,-0.1113,0
1831,65.496,1.4460,-0.1007,0
1832,65.527,1.1960,-0.1151,0
1833,65.557,0.9020,-0.1425,0
1834,65.588,1.0700,-0.1579,0
1835,65.622,0.2000,-0.2484,0
1836,65.652,0.7340,-0.2811,0
1837,65.685,1.6760,-0.2388,0
1838,65.716,1.9540,-0.1765,0
1839,65.746,2.1000,-0.0986,0
1840,65.777,1.9600,-0.0431,0
1841,65.808,1.9220,-0.0007,0
1842,65.839,1.8220,0.0359,0
1843,65.870,1.7140,0.0613,0
1844,65.902,1.7260,0.0786,0
1845,65.936,1.5120,0.0799,0
1846,65.967,1.7660,0.1054,0
1847,66.000,1.7920,0.1247,0
1848,66.032,1.7600,0.1413,0
1849,66.065,1.7680,0.1614,0
1850,66.097,1.5260,0.1560,0
1851,66.129,1.7080,0.1635,0
1852,66.161,1.6360,0.1681,0
1853,66.193,1.5160,0.1635,0
1854,66.225,1.3320,0.1400,0
1855,66.259,0.2960,0.0369,0
1856,66.292,1.1240,0.0085,0
1857,66.324,1.4320,0.0007,0
1858,66.356,1.3680,-0.0006,0
1859,66.387,1.5040,0.0106,0
1860,66.418,1.8040,0.0335,0
1861,66.450,2.0500,0.0807,0
1862,66.482,2.1740,0.1423,0
1863,66.515,1.9840,0.1741,0
1864,66.547,1.9440,0.1976,0
1865,66.582,1.9340,0.2260,0
1866,66.615,1.9380,0.2489,0
1867,66.647,1.8900,0.2603,0
1868,66.680,1.8100,0.2701,0
1869,66.712,1.8280,0.2811,0
1870,66.745,1.5600,0.2632,0
1871,66.778,1.7560,0.2648,0
1872,66.811,1.9220,0.2818,0
1873,66.843,1.7380,0.2806,0
1874,66.875,1.6280,0.2701,0
1875,66.910,0.5520,0.1754,0
1876,66.942,1.2640,0.1422,0
1877,66.975,1.6740,0.1394,0
1878,67.007,1.5120,0.1361,0
1879,67.040,1.3380,0.1193,0
1880,67.072,1.3580,0.0927,0
1881,67.105,1.4060,0.0784,0
1882,67.138,1.2400,0.0603,0
1883,67.171,0.9920,0.0137,0
1884,67.203,1.1240,-0.0214,0
1885,67.242,1.3180,-0.0283,0
1886,67.275,1.3980,-0.0296,0
1887,67.308,1.3340,-0.0421,0
1888,67.340,1.2680,-0.0533,0
1889,67.373,1.2180,-0.0656,0
1890,67.405,1.1680,-0.0873,0
1891,67.438,0.9840,-0.1198,0
1892,67.478,1.8360,-0.0778,0
1893,67.515,1.9260,-0.0356,0
1894,67.547,1.9900,0.0130,0
1895,67.582,1.4760,0.0173,0
1896,67.615,1.1060,-0.0138,0
1897,67.648,2.1320,0.0369,0
1898,67.681,2.1820,0.0931,0
1899,67.714,2.2300,0.1545,0
1900,67.746,2.2320,0.2016,0
1901,67.779,2.3540,0.2538,0
1902,67.811,2.2700,0.3029,0
1903,67.843,1.9700,0.3197,0
1904,67.875,1.6600,0.3034,0
1905,67.910,1.8580,0.3085,0
1906,67.942,1.7460,0.3055,0
1907,67.975,1.6580,0.2920,0
1908,68.007,1.4720,0.2644,0
1909,68.039,1.3420,0.2310,0
1910,68.075,1.4720,0.2079,0
1911,68.107,1.3820,0.1785,0
1912,68.140,1.0780,0.1315,0
1913,68.173,1.2780,0.1016,0
1914,68.206,1.3400,0.0753,0
1915,68.242,1.6580,0.0830,0
1916,68.275,1.5360,0.0812,0
1917,68.308,0.2720,-0.0248,0
1918,68.341,1.6200,-0.0170,0
1919,68.374,1.9460,0.0147,0
1920,68.407,1.9660,0.0593,0
1921,68.440,1.9580,0.0946,0
1922,68.473,2.0180,0.1215,0
1923,68.506,2.0720,0.1603,0
1924,68.539,1.9020,0.1856,0
1925,68.575,1.8800,0.1956,0
1926,68.609,1.8080,0.2008,0
1927,68.642,1.8360,0.2162,0
1928,68.676,1.9320,0.2303,0
1929,68.710,1.9300,0.2398,0
1930,68.744,1.9420,0.2583,0
1931,68.778,2.0580,0.2816,0
1932,68.811,2.0380,0.2947,0
1933,68.845,1.8960,0.3020,0
1934,68.879,2.0860,0.3246,0
1935,68.915,1.9700,0.3282,0
1936,68.949,1.9860,0.3371,0
1937,68.982,1.3860,0.3006,0
1938,69.016,1.3540,0.2573,0
1939,69.049,2.1540,0.2776,0
1940,69.083,2.0560,0.2985,0
1941,69.117,2.0120,0.3166,0
1942,69.150,2.0440,0.3236,0
1943,69.184,2.2460,0.3497,0
1944,69.218,2.1560,0.3752,0
1945,69.253,1.6620,0.3513,0
1946,69.286,1.5520,0.3150,0
1947,69.319,1.6100,0.2924,0
1948,69.352,1.6920,0.2788,0
1949,69.385,1.6940,0.2610,0
1950,69.418,1.6940,0.2477,0
1951,69.451,1.7740,0.2447,0
1952,69.484,1.7840,0.2382,0
1953,69.517,1.8400,0.2371,0
1954,69.550,2.1040,0.2606,0
1955,69.586,1.8680,0.2615,0
1956,69.619,1.9440,0.2670,0
1957,69.652,1.1820,0.2120,0
1958,69.686,1.5620,0.1912,0
1959,69.719,2.0760,0.2078,0
1960,69.752,1.9660,0.2217,0
1961,69.785,1.9720,0.2384,0
1962,69.818,2.0340,0.2484,0
1963,69.852,2.1340,0.2678,0
1964,69.885,2.0460,0.2865,0
1965,69.921,1.6400,0.2645,0
1966,69.954,1.5400,0.2313,0
1967,69.987,1.4680,0.2007,0
1968,70.020,1.3520,0.1638,0
1969,70.053,1.3120,0.1209,0
1970,70.088,1.1780,0.0733,0
1971,70.121,1.1340,0.0300,0
1972,70.155,0.8820,-0.0347,0
1973,70.189,1.2140,-0.0684,0
1974,70.222,1.1560,-0.0994,0
1975,70.259,1.4880,-0.1004,0
1976,70.293,1.1940,-0.1284,0
1977,70.327,0.6520,-0.1934,0
1978,70.361,1.7500,-0.1675,0
1979,70.396,1.8160,-0.1419,0
1980,70.430,1.7720,-0.1095,0
1981,70.464,1.8340,-0.0789,0
1982,70.498,1.9780,-0.0486,0
1983,70.532,1.8080,-0.0249,0
1984,70.566,1.5020,-0.0242,0
1985,70.602,1.1220,-0.0663,0
1986,70.635,1.1760,-0.0991,0
1987,70.669,1.2060,-0.1186,0
1988,70.703,1.1800,-0.1436,0
1989,70.736,1.1580,-0.1719,0
1990,70.769,1.1000,-0.1954,0
1991,70.802,1.0520,-0.2211,0
1992,70.836,1.2900,-0.2318,0
1993,70.869,1.2780,-0.2378,0
1994,70.902,1.2960,-0.2368,0
1995,70.939,0.6340,-0.2951,0
1996,70.972,0.6720,-0.3466,0
1997,71.007,1.7040,-0.3093,0
1998,71.042,1.8620,-0.2596,0
1999,71.076,2.0040,-0.1982,0
2000,71.111,2.1380,-0.1354,0
2001,71.146,2.3720,-0.0600,0
2002,71.180,2.2160,0.0016,0
2003,71.215,1.8620,0.0285,0
2004,71.249,1.7220,0.0357,0
2005,71.285,1.4380,0.0215,0
2006,71.320,1.4360,0.0111,0
2007,71.354,1.5340,0.0040,0
2008,71.388,1.5540,0.0000,0
2009,71.422,1.4900,-0.0035,0
2010,71.455,1.4900,-0.0106,0
2011,71.489,1.8240,0.0066,0
2012,71.523,1.8820,0.0327,0
2013,71.556,1.9060,0.0603,0
2014,71.590,1.1780,0.0217,0
2015,71.626,1.6460,0.0239,0
2016,71.660,2.4680,0.0916,0
2017,71.694,2.5200,0.1624,0
2018,71.728,2.5480,0.2318,0
2019,71.762,2.4860,0.2843,0
2020,71.796,2.5240,0.3356,0
2021,71.830,2.3620,0.3736,0
2022,71.864,1.9980,0.3756,0
2023,71.897,1.7740,0.3555,0
2024,71.931,1.6640,0.3301,0
2025,71.968,1.4080,0.2870,0
2026,72.002,1.3800,0.2416,0
2027,72.037,1.3580,0.1980,0
2028,72.073,1.4620,0.1696,0
2029,72.108,1.5660,0.1503,0
2030,72.143,1.9900,0.1653,0
2031,72.178,2.0140,0.1844,0
2032,72.213,1.9900,0.2017,0
2033,72.248,1.0020,0.1347,0
2034,72.283,0.9100,0.0645,0
2035,72.321,1.3620,0.0335,0
2036,72.356,1.5160,0.0210,0
2037,72.391,1.6600,0.0254,0
2038,72.426,1.9280,0.0462,0
2039,72.462,2.0100,0.0721,0
2040,72.497,1.6000,0.0691,0
2041,72.532,1.2440,0.0338,0
2042,72.567,1.0520,-0.0204,0
2043,72.602,0.9560,-0.0727,0
2044,72.636,0.9660,-0.1178,0
2045,72.683,1.1600,-0.1493,0
2046,72.718,1.0460,-0.1844,0
2047,72.754,0.9160,-0.2215,0
2048,72.789,1.3760,-0.2250,0
2049,72.824,1.5780,-0.2128,0
2050,72.860,1.9400,-0.1626,0
2051,72.896,1.2940,-0.1708,0
2052,72.931,1.2820,-0.1854,0
2053,72.970,1.6400,-0.1689,0
2054,73.007,1.9960,-0.1198,0
2055,73.045,2.4040,-0.0436,0
2056,73.080,2.3160,0.0180,0
2057,73.117,2.0160,0.0546,0
2058,73.155,1.6940,0.0593,0
2059,73.191,1.8300,0.0691,0
2060,73.228,2.0260,0.0972,0
2061,73.264,1.7740,0.1068,0
2062,73.300,1.4280,0.0833,0
2063,73.336,1.3040,0.0483,0
2064,73.372,1.1900,0.0109,0
2065,73.411,1.8460,0.0287,0
2066,73.447,1.7580,0.0356,0
2067,73.483,1.4720,0.0254,0
2068,73.520,1.1860,-0.0094,0
2069,73.556,0.7100,-0.0857,0
2070,73.593,2.1540,-0.0374,0
2071,73.630,1.9900,-0.0023,0
2072,73.666,1.7080,0.0127,0
2073,73.702,1.5980,0.0088,0
2074,73.738,1.7540,0.0155,0
2075,73.775,2.0440,0.0533,0
2076,73.811,1.8480,0.0709,0
2077,73.847,1.6360,0.0646,0
2078,73.882,1.4120,0.0435,0
2079,73.918,1.3420,0.0199,0
2080,73.954,1.3320,-0.0071,0
2081,73.991,1.7740,0.0044,0
2082,74.027,1.6860,0.0125,0
2083,74.064,1.6100,0.0134,0
2084,74.102,1.2760,-0.0170,0
2085,74.140,1.7940,-0.0018,0
2086,74.176,1.1060,-0.0406,0
2087,74.212,1.7700,-0.0237,0
2088,74.247,2.1280,0.0148,0
2089,74.282,1.8980,0.0412,0
2090,74.317,1.8560,0.0631,0
2091,74.352,1.9640,0.0805,0
2092,74.387,2.0460,0.1080,0
2093,74.422,1.9140,0.1305,0
2094,74.457,1.9180,0.1420,0
2095,74.496,2.0800,0.1625,0
2096,74.532,1.7540,0.1655,0
2097,74.567,1.5040,0.1452,0
2098,74.604,1.4900,0.1148,0
2099,74.640,1.8100,0.1195,0
2100,74.676,1.8200,0.1306,0
2101,74.712,1.9680,0.1448,0
2102,74.748,1.7780,0.1419,0
2103,74.784,1.5080,0.1256,0
2104,74.819,1.2700,0.0857,0
2105,74.858,1.2780,0.0438,0
2106,74.894,2.3200,0.0954,0
2107,74.930,2.1520,0.1329,0
2108,74.966,1.7980,0.1377,0
2109,75.003,1.8880,0.1441,0
2110,75.039,2.2960,0.1837,0
2111,75.080,2.1280,0.2115,0
2112,75.116,1.6240,0.1950,0
2113,75.152,1.5560,0.1683,0
2114,75.188,1.7780,0.1625,0
2115,75.227,2.1160,0.1888,0
2116,75.263,1.8540,0.1905,0
2117,75.299,1.5720,0.1679,0
2118,75.336,1.4700,0.1386,0
2119,75.373,1.7620,0.1343,0
2120,75.410,1.8320,0.1365,0
2121,75.446,1.8080,0.1391,0
2122,75.482,1.5440,0.1188,0
2123,75.517,1.4260,0.0887,0
2124,75.552,0.6160,-0.0025,0
2125,75.590,1.4420,-0.0214,0
2126,75.626,2.2460,0.0212,0
2127,75.662,2.1220,0.0619,0
2128,75.698,1.8760,0.0820,0
2129,75.734,1.7840,0.0793,0
2130,75.770,1.9140,0.0906,0
2131,75.806,2.0220,0.1193,0
2132,75.842,2.0200,0.1374,0
2133,75.879,1.8240,0.1347,0
2134,75.915,1.4780,0.1134,0
2135,75.953,1.2640,0.0727,0
2136,75.989,1.4700,0.0434,0
2137,76.025,1.7300,0.0449,0
2138,76.064,1.3420,0.0209,0
2139,76.103,1.2600,-0.0165,0
2140,76.138,1.7540,-0.0142,0
2141,76.173,1.9200,0.0114,0
2142,76.212,1.8960,0.0335,0
2143,76.246,2.0740,0.0592,0
2144,76.282,1.8940,0.0729,0
2145,76.320,2.0240,0.1015,0
2146,76.356,1.1940,0.0531,0
2147,76.392,1.5240,0.0338,0
2148,76.428,1.7100,0.0339,0
2149,76.463,1.3700,0.0095,0
2150,76.499,1.0700,-0.0400,0
2151,76.534,0.9940,-0.0946,0
2152,76.570,1.0660,-0.1359,0
2153,76.605,1.0580,-0.1728,0
2154,76.641,1.0800,-0.2071,0
2155,76.679,0.9120,-0.2511,0
2156,76.715,0.7220,-0.3041,0
2157,76.752,0.6740,-0.3592,0
2158,76.788,0.9660,-0.3874,0
2159,76.825,1.3880,-0.3752,0
2160,76.861,1.6620,-0.3400,0
2161,76.897,1.5520,-0.3173,0
2162,76.933,1.4760,-0.3020,0
2163,76.968,1.7860,-0.2637,0
2164,77.003,1.9200,-0.2179,0
2165,77.042,2.8500,-0.0993,0
2166,77.079,2.6580,-0.0049,0
2167,77.116,2.4480,0.0674,0
2168,77.153,1.5080,0.0537,0
2169,77.190,2.9800,0.1542,0
2170,77.227,3.1940,0.2655,0
2171,77.263,3.1120,0.3736,0
2172,77.300,3.1520,0.4658,0
2173,77.336,3.2180,0.5473,0
2174,77.372,3.2220,0.6345,0
2175,77.413,3.1540,0.7074,0
2176,77.449,2.8320,0.7362,0
2177,77.485,2.8520,0.7694,0
2178,77.523,3.1420,0.8265,0
2179,77.560,3.1260,0.8693,0
2180,77.596,2.7560,0.8808,0
2181,77.632,2.4300,0.8687,0
2182,77.668,2.2880,0.8376,0
2183,77.704,2.3740,0.8137,0
2184,77.739,2.2700,0.7906,0
2185,77.779,2.2920,0.7681,0
2186,77.815,1.8660,0.7073,0
2187,77.851,1.6760,0.6411,0
2188,77.888,1.3020,0.5496,0
2189,77.923,1.4780,0.4736,0
2190,77.960,2.1120,0.4564,0
2191,77.995,1.7720,0.4206,0
2192,78.031,1.3440,0.3517,0
2193,78.073,1.4940,0.2916,0
2194,78.110,1.1220,0.2113,0
2195,78.145,0.4180,0.0881,0
2196,78.180,0.0000,-0.0690,0
2197,78.216,0.0000,-0.2169,0
2198,78.251,0.0000,-0.3412,0
2199,78.286,0.0000,-0.4558,0
2200,78.322,0.0000,-0.5681,0
2201,78.358,0.0000,-0.6636,0
2202,78.393,0.0000,-0.7462,0
2203,78.427,0.0000,-0.8289,0
2204,78.463,0.0000,-0.9022,0
2205,78.501,0.0000,-0.9618,0
2206,78.537,0.0000,-1.0203,0
2207,78.573,0.1040,-1.0674,0
2208,78.609,0.5940,-1.0643,0
2209,78.645,0.7180,-1.0499,0
2210,78.680,0.0000,-1.0949,0
2211,78.715,0.1160,-1.1262,0
2212,78.751,0.8940,-1.0954,0
2213,78.786,1.2580,-1.0326,0
2214,78.822,1.7220,-0.9311,0
2215,78.861,1.9740,-0.8223,0
2216,78.897,1.8040,-0.7355,0
2217,78.933,1.4200,-0.6810,0
2218,78.969,1.5240,-0.6285,0
2219,79.005,1.9580,-0.5497,0
2220,79.041,2.1760,-0.4508,0
2221,79.077,2.1160,-0.3632,0
2222,79.113,1.8720,-0.3106,0
2223,79.149,1.7500,-0.2700,0
2224,79.185,1.8660,-0.2197,0
2225,79.223,2.4660,-0.1310,0
2226,79.260,2.4140,-0.0527,0
2227,79.297,2.0280,-0.0039,0
2228,79.333,1.8820,0.0215,0
2229,79.370,2.1460,0.0594,0
2230,79.406,2.4580,0.1285,0
2231,79.442,2.3320,0.1838,0
2232,79.477,2.4420,0.2345,0
2233,79.512,2.2520,0.2673,0
2234,79.548,2.0720,0.2894,0
2235,79.586,1.4540,0.2529,0
2236,79.621,2.0540,0.2624,0
2237,79.657,2.7940,0.3356,0
2238,79.693,2.6640,0.3986,0
2239,79.729,2.2740,0.4206,0
2240,79.765,2.1240,0.4226,0
2241,79.802,2.2760,0.4400,0
2242,79.838,2.3440,0.4630,0
2243,79.874,2.3060,0.4773,0
2244,79.909,2.2200,0.4835,0
2245,79.948,1.6820,0.4484,0
2246,79.984,1.7380,0.4168,0
2247,80.021,2.1100,0.4133,0
2248,80.057,2.3660,0.4371,0
2249,80.096,2.0880,0.4392,0
2250,80.131,2.1160,0.4363,0
2251,80.165,2.1600,0.4361,0
2252,80.201,2.2600,0.4502,0
2253,80.235,2.4320,0.4736,0
2254,80.270,2.6440,0.5080,0
2255,80.308,2.8720,0.5633,0
2256,80.344,2.7140,0.6022,0
2257,80.380,2.6080,0.6236,0
2258,80.416,2.4980,0.6340,0
2259,80.453,2.7140,0.6636,0
2260,80.489,1.7500,0.6111,0
2261,80.524,2.8220,0.6454,0
2262,80.559,2.9380,0.6841,0
2263,80.595,2.7060,0.7118,0
2264,80.630,2.4900,0.7141,0
2265,80.668,2.5380,0.7099,0
2266,80.703,2.6300,0.7217,0
2267,80.738,2.6140,0.7345,0
2268,80.774,2.5400,0.7301,0
2269,80.810,2.3060,0.7087,0
2270,80.846,1.8940,0.6625,0
2271,80.882,1.5800,0.5869,0
2272,80.919,1.6660,0.5193,0
2273,80.955,1.9140,0.4851,0
2274,80.990,1.9540,0.4578,0
2275,81.028,1.6000,0.3986,0
2276,81.065,1.2640,0.3197,0
2277,81.101,1.2580,0.2478,0
2278,81.136,1.2700,0.1782,0
2279,81.173,1.6360,0.1459,0
2280,81.208,1.7120,0.1264,0
2281,81.243,1.5520,0.0946,0
2282,81.279,1.1960,0.0346,0
2283,81.314,0.0000,-0.1141,0
2284,81.349,0.9920,-0.1745,0
2285,81.387,1.6500,-0.1825,0
2286,81.422,1.7900,-0.1630,0
2287,81.458,1.8320,-0.1407,0
2288,81.495,1.6180,-0.1508,0
2289,81.531,1.2940,-0.1787,0
2290,81.568,1.0880,-0.2145,0
2291,81.605,1.4320,-0.2323,0
2292,81.641,1.5480,-0.2376,0
2293,81.676,1.4020,-0.2405,0
2294,81.711,1.2220,-0.2658,0
2295,81.750,1.0160,-0.3135,0
2296,81.785,1.2840,-0.3246,0
2297,81.822,1.6180,-0.3075,0
2298,81.858,1.6440,-0.2970,0
2299,81.894,1.4140,-0.2987,0
2300,81.930,1.1820,-0.3162,0
2301,81.966,1.0180,-0.3544,0
2302,82.002,1.2500,-0.3692,0
2303,82.038,1.6180,-0.3461,0
2304,82.076,1.6480,-0.3251,0
2305,82.114,1.1720,-0.3454,0
2306,82.149,0.0660,-0.4485,0
2307,82.190,1.6960,-0.4192,0
2308,82.223,1.9840,-0.3726,0
2309,82.258,2.0220,-0.3061,0
2310,82.293,1.9160,-0.2606,0
2311,82.328,1.9280,-0.2326,0
2312,82.362,1.8780,-0.1969,0
2313,82.397,1.5780,-0.1830,0
2314,82.432,1.3840,-0.2023,0
2315,82.470,1.7840,-0.1854,0
2316,82.505,1.8840,-0.1489,0
2317,82.540,1.8560,-0.1244,0
2318,82.576,1.6560,-0.1251,0
2319,82.612,1.3060,-0.1438,0
2320,82.648,1.2280,-0.1683,0
2321,82.685,1.3900,-0.1884,0
2322,82.720,1.7200,-0.1729,0
2323,82.756,1.8620,-0.1402,0
2324,82.791,1.8520,-0.1191,0
2325,82.828,1.4460,-0.1328,0
2326,82.863,1.2580,-0.1533,0
2327,82.897,1.2880,-0.1763,0
2328,82.932,1.3200,-0.1980,0
2329,82.968,1.4960,-0.1952,0
2330,83.002,1.4520,-0.1972,0
2331,83.037,0.8040,-0.2559,0
2332,83.073,2.0600,-0.2071,0
2333,83.108,2.0820,-0.1591,0
2334,83.144,1.8420,-0.1277,0
2335,83.183,1.6180,-0.1226,0
2336,83.220,2.1300,-0.0821,0
2337,83.259,2.0340,-0.0452,0
2338,83.294,1.6080,-0.0416,0
2339,83.330,1.3760,-0.0675,0
2340,83.367,1.4540,-0.0856,0
2341,83.403,1.7980,-0.0663,0
2342,83.438,1.9560,-0.0389,0
2343,83.473,2.0080,-0.0129,0
2344,83.507,1.9300,0.0104,0
2345,83.545,1.4700,-0.0053,0
2346,83.581,1.3960,-0.0320,0
2347,83.617,1.5640,-0.0426,0
2348,83.653,1.8360,-0.0250,0
2349,83.689,2.0100,0.0030,0
2350,83.724,1.9680,0.0237,0
2351,83.759,1.8300,0.0353,0
2352,83.793,1.7360,0.0369,0
2353,83.828,1.5080,0.0165,0
2354,83.863,1.4460,-0.0047,0
2355,83.900,1.4140,-0.0264,0
2356,83.935,0.3860,-0.1302,0
2357,83.970,1.9900,-0.0990,0
2358,84.005,2.2980,-0.0469,0
2359,84.041,2.1980,0.0075,0
2360,84.077,2.0280,0.0377,0
2361,84.113,1.9380,0.0470,0
2362,84.149,1.9320,0.0651,0
2363,84.184,1.8160,0.0758,0
2364,84.220,1.9040,0.0808,0
2365,84.258,1.9660,0.0934,0
2366,84.293,1.7540,0.0973,0
2367,84.329,1.4460,0.0681,0
2368,84.365,1.4040,0.0322,0
2369,84.401,1.6000,0.0235,0
2370,84.435,1.7780,0.0302,0
2371,84.471,1.9120,0.0408,0
2372,84.506,1.9420,0.0576,0
2373,84.541,1.8260,0.0674,0
2374,84.576,1.6700,0.0574,0
2375,84.613,1.3140,0.0191,0
2376,84.648,1.2800,-0.0140,0
2377,84.683,1.4340,-0.0366,0
2378,84.718,1.6360,-0.0423,0
2379,84.754,1.9080,-0.0194,0
2380,84.790,1.1180,-0.0617,0
2381,84.825,1.6000,-0.0673,0
2382,84.861,1.6800,-0.0673,0
2383,84.898,1.6300,-0.0617,0
2384,84.933,1.7260,-0.0529,0
2385,84.971,2.3440,-0.0023,0
2386,85.006,2.3900,0.0570,0
2387,85.041,2.0780,0.0913,0
2388,85.078,1.6340,0.0753,0
2389,85.113,1.4540,0.0454,0
2390,85.151,1.7980,0.0529,0
2391,85.187,2.0040,0.0720,0
2392,85.222,2.0260,0.0897,0
2393,85.257,1.9220,0.1037,0
2394,85.292,1.7960,0.1038,0
2395,85.331,1.4220,0.0691,0
2396,85.367,1.6580,0.0596,0
2397,85.402,2.0020,0.0783,0
2398,85.438,2.2060,0.1110,0
2399,85.474,2.2120,0.1443,0
2400,85.509,1.9740,0.1559,0
2401,85.545,1.8160,0.1503,0
2402,85.581,1.7780,0.1417,0
2403,85.617,1.9860,0.1523,0
2404,85.652,1.1160,0.0922,0
2405,85.692,2.0040,0.1058,0
2406,85.727,2.2080,0.1315,0
2407,85.761,2.0140,0.1502,0
2408,85.796,1.9520,0.1594,0
2409,85.830,2.0240,0.1637,0
2410,85.867,2.3820,0.2037,0
2411,85.902,2.2980,0.2388,0
2412,85.937,2.2900,0.2622,0
2413,85.971,2.2940,0.2825,0
2414,86.006,2.1260,0.2952,0
2415,86.043,1.8120,0.2777,0
2416,86.078,1.6060,0.2385,0
2417,86.114,1.5620,0.2037,0
2418,86.149,1.5640,0.1736,0
2419,86.184,1.5980,0.1434,0
2420,86.219,1.7500,0.1296,0
2421,86.255,1.8800,0.1317,0
2422,86.291,1.7320,0.1190,0
2423,86.327,1.5040,0.0875,0
2424,86.363,1.3060,0.0449,0
2425,86.400,1.6340,0.0303,0
2426,86.435,1.8040,0.0291,0
2427,86.471,1.9000,0.0409,0
2428,86.506,1.6800,0.0338,0
2429,86.541,0.6820,-0.0560,0
2430,86.575,1.6400,-0.0633,0
2431,86.610,1.5040,-0.0812,0
2432,86.645,1.3780,-0.0989,0
2433,86.680,1.4420,-0.1156,0
2434,86.715,1.7000,-0.1155,0
2435,86.752,2.1140,-0.0731,0
2436,86.788,1.8860,-0.0504,0
2437,86.823,1.6120,-0.0584,0
2438,86.859,1.2440,-0.0951,0
2439,86.895,0.9580,-0.1475,0
2440,86.931,1.1340,-0.1866,0
2441,86.967,1.3920,-0.2034,0
2442,87.002,1.6300,-0.1918,0
2443,87.037,1.7520,-0.1719,0
2444,87.072,1.8340,-0.1518,0
2445,87.110,1.3820,-0.1649,0
2446,87.145,1.3140,-0.1808,0
2447,87.181,1.3400,-0.2014,0
2448,87.216,1.6340,-0.1934,0
2449,87.252,1.8020,-0.1662,0
2450,87.287,1.9460,-0.1340,0
2451,87.323,1.7600,-0.1211,0
2452,87.360,1.4040,-0.1320,0
2453,87.396,0.2540,-0.2367,0
2454,87.432,1.2660,-0.2600,0
2455,87.470,2.0380,-0.2180,0
2456,87.506,1.8960,-0.1748,0
2457,87.543,1.6240,-0.1623,0
2458,87.579,1.5460,-0.1700,0
2459,87.616,1.7380,-0.1513,0
2460,87.651,1.7560,-0.1273,0
2461,87.686,1.8040,-0.1124,0
2462,87.721,1.8200,-0.0959,0
2463,87.756,1.7420,-0.0776,0
2464,87.791,1.5720,-0.0814,0
2465,87.837,1.8220,-0.0702,0
2466,87.872,1.8060,-0.0525,0
2467,87.907,1.5900,-0.0520,0
2468,87.942,1.3740,-0.0780,0
2469,87.977,1.2260,-0.1113,0
2470,88.013,1.2360,-0.1355,0
2471,88.048,1.4100,-0.1497,0
2472,88.085,1.8540,-0.1280,0
2473,88.121,1.8880,-0.0972,0
2474,88.158,1.6100,-0.0918,0
2475,88.197,1.2280,-0.1245,0
2476,88.233,0.2240,-0.2318,0
2477,88.270,1.9500,-0.1924,0
2478,88.306,1.9360,-0.1629,0
2479,88.343,1.5700,-0.1487,0
2480,88.379,1.4820,-0.1482,0
2481,88.415,1.7980,-0.1370,0
2482,88.451,2.0980,-0.0892,0
2483,88.487,1.9420,-0.0499,0
2484,88.523,1.7600,-0.0436,0
2485,88.562,1.3560,-0.0700,0
2486,88.599,1.6480,-0.0594,0
2487,88.635,1.8660,-0.0415,0
2488,88.670,1.9400,-0.0214,0
2489,88.706,1.8540,0.0013,0
2490,88.741,1.7280,0.0077,0
2491,88.776,1.6080,-0.0046,0
