sample_index,timestamp_seconds,raw_voltage,filtered_voltage,lead_off
0,2.521,1.5900,0.3148,0
1,2.996,1.7500,0.5991,0
2,3.115,1.8460,0.8526,0
3,3.161,1.4960,0.9737,0
4,3.616,2.2320,1.2084,0
5,3.711,1.5460,1.2664,0
6,4.098,1.9340,1.3893,0
7,4.134,2.1900,1.5185,0
8,4.215,2.2060,1.6319,0
9,4.254,2.1740,1.7228,0
10,4.286,2.2580,1.7911,0
11,4.353,1.6980,1.7306,0
12,4.380,1.6320,1.6818,0
13,4.406,1.4360,1.5871,0
14,4.434,1.8760,1.5884,0
15,4.462,1.5880,1.5467,0
16,4.510,1.4320,1.4792,0
17,4.541,1.3080,1.3791,0
18,4.571,1.4920,1.3440,0
19,4.599,1.7780,1.3817,0
20,4.626,1.4720,1.3332,0
21,4.653,1.8020,1.3570,0
22,4.681,1.8300,1.3917,0
23,4.709,1.3660,1.3198,0
24,4.737,0.3660,1.0517,0
25,4.775,1.2760,1.0222,0
26,4.799,2.1320,1.1679,0
27,4.826,1.6160,1.1824,0
28,4.854,1.9520,1.2598,0
29,4.884,2.1820,1.3564,0
30,4.914,2.1540,1.4308,0
31,4.942,1.8080,1.4238,0
32,4.970,2.1480,1.4725,0
33,4.998,1.9540,1.4688,0
34,5.025,1.3500,1.3559,0
35,5.055,1.5540,1.2944,0
36,5.083,1.8920,1.2996,0
37,5.111,1.4580,1.2334,0
38,5.139,1.5280,1.1929,0
39,5.166,1.8920,1.2095,0
40,5.193,1.3860,1.1336,0
41,5.220,1.6560,1.1383,0
42,5.248,1.5040,1.0850,0
43,5.275,1.2580,0.9956,0
44,5.303,1.8220,1.0541,0
45,5.334,1.9140,1.1006,0
46,5.401,0.8660,0.9231,0
47,5.459,1.5840,0.9391,0
48,5.513,2.1200,1.0442,0
49,5.578,1.7820,1.0569,0
50,5.612,1.9320,1.1102,0
51,5.639,1.9460,1.1426,0
52,5.666,2.0740,1.1838,0
53,5.694,1.4040,1.0964,0
54,5.721,1.6200,1.0652,0
55,5.753,1.7680,1.0501,0
56,5.780,1.6660,1.0310,0
57,5.806,1.4700,0.9836,0
58,5.835,1.8740,1.0031,0
59,5.868,1.8880,1.0231,0
60,5.904,1.5520,0.9915,0
61,5.932,1.5380,0.9445,0
62,5.959,1.2560,0.8371,0
63,5.987,1.8060,0.8825,0
64,6.014,1.7400,0.9007,0
65,6.042,1.4300,0.8355,0
66,6.072,1.4520,0.7980,0
67,6.103,0.5760,0.5997,0
68,6.135,1.9580,0.6982,0
69,6.162,1.7920,0.7426,0
70,6.190,1.7260,0.7894,0
71,6.218,2.1920,0.8993,0
72,6.245,1.7160,0.8764,0
73,6.271,2.0760,0.9560,0
74,6.299,2.3100,1.0568,0
75,6.329,1.9560,1.0448,0
76,6.357,1.6200,0.9859,0
77,6.384,1.9480,1.0058,0
78,6.410,1.3840,0.8855,0
79,6.436,1.8520,0.8924,0
80,6.463,1.6220,0.8619,0
81,6.491,1.4560,0.7885,0
82,6.518,1.8940,0.8113,0
83,6.545,1.4460,0.7554,0
84,6.571,1.7100,0.7584,0
85,6.601,1.7380,0.7483,0
86,6.629,1.3000,0.6676,0
87,6.657,1.3860,0.6250,0
88,6.685,1.9340,0.6769,0
89,6.712,1.4900,0.6385,0
90,6.738,1.7300,0.6724,0
91,6.765,1.6580,0.6604,0
92,6.792,0.0000,0.3198,0
93,6.819,1.4860,0.3621,0
94,6.846,1.8120,0.4404,0
95,6.876,1.6300,0.4717,0
96,6.904,2.0440,0.5942,0
97,6.931,2.0340,0.6716,0
98,6.959,1.6860,0.6598,0
99,6.986,2.2660,0.7805,0
100,7.014,2.1180,0.8367,0
101,7.041,1.6980,0.7898,0
102,7.067,1.9600,0.8130,0
103,7.094,1.4160,0.7196,0
104,7.122,1.6660,0.6862,0
105,7.153,1.8260,0.6933,0
106,7.180,1.6600,0.6722,0
107,7.209,1.3900,0.5939,0
108,7.235,1.9200,0.6306,0
109,7.262,1.4640,0.5768,0
110,7.289,1.6220,0.5670,0
111,7.317,1.9020,0.6003,0
112,7.344,1.1920,0.4924,0
113,7.370,1.5720,0.4897,0
114,7.397,1.5420,0.4638,0
115,7.434,1.9460,0.5271,0
116,7.461,1.5180,0.5057,0
117,7.489,1.7640,0.5252,0
118,7.517,1.3860,0.4552,0
119,7.544,0.1900,0.1796,0
120,7.570,1.6900,0.2506,0
121,7.597,1.9080,0.3314,0
122,7.625,1.7440,0.3926,0
123,7.652,2.2000,0.5308,0
124,7.680,1.8820,0.5469,0
125,7.710,1.7620,0.5550,0
126,7.740,2.0420,0.6290,0
127,7.767,2.3740,0.7243,0
128,7.794,1.5660,0.6456,0
129,7.822,1.7400,0.6393,0
130,7.851,1.9120,0.6404,0
131,7.879,1.5300,0.5603,0
132,7.906,1.6720,0.5523,0
133,7.935,1.9180,0.5776,0
134,7.963,1.5380,0.5053,0
135,7.993,1.3740,0.4406,0
136,8.020,1.8740,0.4836,0
137,8.046,1.5760,0.4350,0
138,8.074,1.5180,0.4047,0
139,8.101,1.9360,0.4696,0
140,8.129,1.4720,0.4048,0
141,8.156,1.4420,0.3564,0
142,8.182,1.5540,0.3524,0
143,8.210,1.3000,0.2812,0
144,8.237,1.8940,0.3401,0
145,8.266,1.9060,0.4053,0
146,8.293,1.4240,0.3569,0
147,8.320,1.8140,0.3800,0
148,8.348,0.1980,0.0876,0
149,8.375,0.9640,0.0150,0
150,8.403,2.0940,0.1562,0
151,8.430,1.8540,0.2370,0
152,8.457,1.7640,0.3047,0
153,8.484,2.1560,0.4039,0
154,8.512,1.7140,0.3922,0
155,8.543,1.8180,0.4362,0
156,8.572,2.2420,0.5324,0
157,8.600,2.1960,0.5814,0
158,8.627,1.4400,0.5036,0
159,8.655,1.7140,0.4887,0
160,8.682,1.7620,0.4512,0
161,8.709,1.4280,0.3838,0
162,8.737,1.8720,0.4322,0
163,8.765,1.7320,0.4034,0
164,8.792,1.4720,0.3407,0
165,8.820,1.8900,0.4009,0
166,8.849,1.8580,0.4117,0
167,8.877,1.3800,0.3193,0
168,8.905,1.7600,0.3512,0
169,8.933,1.8180,0.3713,0
170,8.959,1.4160,0.2903,0
171,8.987,1.7660,0.3198,0
172,9.015,1.4660,0.2816,0
173,9.042,1.3700,0.2108,0
174,9.070,1.9200,0.2747,0
175,9.100,1.9540,0.3453,0
176,9.128,1.4980,0.2952,0
177,9.157,1.4120,0.2330,0
178,9.184,0.2940,-0.0245,0
179,9.212,1.2700,-0.0421,0
180,9.239,1.9000,0.0535,0
181,9.267,2.1640,0.2065,0
182,9.296,1.7460,0.2496,0
183,9.323,1.9020,0.2880,0
184,9.350,2.2060,0.3861,0
185,9.381,2.0860,0.4614,0
186,9.409,1.9060,0.4654,0
187,9.437,2.1000,0.4949,0
188,9.466,1.8080,0.4836,0
189,9.494,1.3600,0.3819,0
190,9.522,1.7180,0.3468,0
191,9.549,1.7860,0.3470,0
192,9.578,1.3780,0.2831,0
193,9.606,1.6960,0.2692,0
194,9.634,1.8580,0.2862,0
195,9.665,1.7040,0.2983,0
196,9.693,1.3640,0.2263,0
197,9.722,1.7660,0.2261,0
198,9.749,1.6780,0.2330,0
199,9.777,1.1660,0.1459,0
200,9.806,1.6260,0.1362,0
201,9.834,1.9320,0.1962,0
202,9.864,1.6160,0.2108,0
203,9.897,1.5720,0.1897,0
204,9.926,1.2620,0.0939,0
205,9.956,0.1440,-0.1714,0
206,9.985,1.7280,-0.0756,0
207,10.013,1.6660,-0.0427,0
208,10.041,1.7180,0.0324,0
209,10.070,2.1480,0.1828,0
210,10.099,2.0420,0.2414,0
211,10.128,1.6820,0.2373,0
212,10.158,1.9020,0.3001,0
213,10.189,2.1160,0.3550,0
214,10.217,1.9640,0.3700,0
215,10.248,1.5840,0.3410,0
216,10.276,1.3700,0.2494,0
217,10.305,1.7320,0.2263,0
218,10.335,1.8840,0.2746,0
219,10.364,1.5360,0.2451,0
220,10.394,1.3620,0.1506,0
221,10.422,1.7540,0.1702,0
222,10.450,1.8580,0.2300,0
223,10.479,1.4280,0.1640,0
224,10.508,1.3700,0.0935,0
225,10.538,1.6580,0.1215,0
226,10.568,1.9200,0.1854,0
227,10.598,1.7040,0.1758,0
228,10.628,1.4360,0.1362,0
229,10.656,1.8100,0.1796,0
230,10.686,0.6340,-0.0415,0
231,10.715,1.1200,-0.1078,0
232,10.743,1.6480,-0.0497,0
233,10.772,1.9920,0.0541,0
234,10.802,2.2180,0.1866,0
235,10.833,2.1040,0.2785,0
236,10.865,2.0420,0.3284,0
237,10.896,1.8780,0.3304,0
238,10.925,1.9720,0.3613,0
239,10.954,2.0040,0.3877,0
240,10.984,1.8700,0.3735,0
241,11.014,1.5340,0.3031,0
242,11.044,1.3740,0.2158,0
243,11.073,1.6580,0.1911,0
244,11.103,1.8940,0.2236,0
245,11.133,1.7640,0.2333,0
246,11.163,1.4020,0.1588,0
247,11.192,1.4560,0.1045,0
248,11.222,1.8180,0.1434,0
249,11.251,1.6340,0.1380,0
250,11.281,1.3820,0.0756,0
251,11.311,1.4180,0.0354,0
252,11.341,1.6140,0.0466,0
253,11.371,1.9300,0.1140,0
254,11.401,1.9000,0.1618,0
255,11.433,0.2280,-0.1259,0
256,11.463,1.1020,-0.1889,0
257,11.493,1.6280,-0.1457,0
258,11.523,1.9360,-0.0270,0
259,11.553,2.1760,0.1164,0
260,11.584,2.1400,0.2022,0
261,11.614,1.9380,0.2421,0
262,11.645,1.8720,0.2716,0
263,11.675,1.8240,0.2643,0
264,11.705,1.8420,0.2625,0
265,11.739,1.7900,0.2691,0
266,11.769,1.8940,0.2820,0
267,11.801,1.8640,0.2750,0
268,11.830,1.4700,0.2100,0
269,11.862,1.3640,0.1347,0
270,11.893,1.4180,0.0652,0
271,11.924,1.6680,0.0734,0
272,11.955,1.8520,0.1283,0
273,11.986,1.8260,0.1481,0
274,12.017,1.4660,0.0931,0
275,12.050,1.8240,0.1361,0
276,12.082,1.7000,0.1330,0
277,12.113,1.4880,0.0830,0
278,12.145,1.5080,0.0607,0
279,12.175,0.2120,-0.2183,0
280,12.207,1.2180,-0.2529,0
281,12.237,2.1280,-0.0948,0
282,12.268,2.1280,0.0505,0
283,12.299,2.0020,0.1309,0
284,12.331,1.8840,0.1575,0
285,12.364,1.9120,0.1998,0
286,12.395,1.8840,0.2298,0
287,12.426,1.8440,0.2284,0
288,12.457,1.6940,0.2047,0
289,12.488,1.8280,0.2229,0
290,12.519,1.8680,0.2301,0
291,12.550,1.7480,0.2112,0
292,12.581,1.4820,0.1575,0
293,12.612,1.3520,0.0790,0
294,12.643,1.4260,0.0211,0
295,12.677,1.4320,-0.0087,0
296,12.708,1.5960,0.0016,0
297,12.740,1.7500,0.0255,0
298,12.772,1.5720,0.0184,0
299,12.803,1.8100,0.0691,0
300,12.835,1.9280,0.1172,0
301,12.869,1.9520,0.1624,0
302,12.901,2.0320,0.2278,0
303,12.934,0.6540,-0.0043,0
304,12.966,1.1440,-0.1010,0
305,13.002,2.1360,0.0256,0
306,13.035,2.1500,0.1404,0
307,13.067,2.1280,0.2210,0
308,13.099,2.0420,0.2595,0
309,13.132,2.0440,0.2997,0
310,13.164,2.0240,0.3280,0
311,13.197,1.6820,0.2719,0
312,13.229,1.3860,0.1725,0
313,13.262,1.3500,0.0901,0
314,13.295,1.3600,0.0179,0
315,13.330,1.4320,-0.0236,0
316,13.363,1.4380,-0.0476,0
317,13.396,1.3840,-0.0826,0
318,13.429,1.3940,-0.1123,0
319,13.462,1.3800,-0.1311,0
320,13.495,1.2460,-0.1726,0
321,13.528,1.1380,-0.2338,0
322,13.561,1.4320,-0.2201,0
323,13.594,1.4700,-0.1966,0
324,13.627,1.4600,-0.1833,0
325,13.663,0.9200,-0.2814,0
326,13.696,0.4480,-0.4484,0
327,13.729,1.6220,-0.3530,0
328,13.762,1.6240,-0.2771,0
329,13.795,1.6760,-0.1910,0
330,13.828,1.6820,-0.1296,0
331,13.862,1.7880,-0.0687,0
332,13.895,1.9240,0.0203,0
333,13.929,1.7020,0.0483,0
334,13.962,1.4080,-0.0014,0
335,14.000,1.6220,0.0059,0
336,14.029,1.3580,-0.0319,0
337,14.062,1.3360,-0.0745,0
338,14.094,1.3500,-0.1107,0
339,14.127,1.3680,-0.1245,0
340,14.159,1.4800,-0.1143,0
341,14.192,1.5680,-0.0981,0
342,14.227,1.1540,-0.1588,0
343,14.260,1.4700,-0.1403,0
344,14.292,1.6240,-0.1074,0
345,14.327,1.4460,-0.1096,0
346,14.360,1.3700,-0.1174,0
347,14.393,0.0000,-0.4080,0
348,14.425,1.5920,-0.3264,0
349,14.458,1.8920,-0.1931,0
350,14.490,2.0180,-0.0501,0
351,14.523,2.0720,0.0610,0
352,14.556,2.2000,0.1716,0
353,14.589,2.3640,0.3061,0
354,14.622,2.3200,0.3983,0
355,14.658,1.6940,0.3366,0
356,14.692,1.5480,0.2670,0
357,14.726,1.4300,0.1870,0
358,14.760,1.3840,0.1048,0
359,14.795,1.3360,0.0356,0
360,14.829,1.3460,-0.0122,0
361,14.865,1.4620,-0.0360,0
362,14.899,1.4500,-0.0562,0
363,14.934,1.5200,-0.0494,0
364,14.968,1.8760,0.0205,0
365,15.005,1.9460,0.0862,0
366,15.039,1.9780,0.1554,0
367,15.073,0.5700,-0.0717,0
368,15.107,1.2620,-0.1264,0
369,15.141,1.9500,-0.0326,0
370,15.174,1.9260,0.0552,0
371,15.208,1.9320,0.1196,0
372,15.242,1.9660,0.1631,0
373,15.275,2.0760,0.2336,0
374,15.309,2.0940,0.2977,0
375,15.345,1.4800,0.2100,0
376,15.380,1.3340,0.1149,0
377,15.414,1.3960,0.0598,0
378,15.448,1.4160,0.0106,0
379,15.482,1.4820,-0.0170,0
380,15.515,1.5000,-0.0249,0
381,15.549,1.5560,-0.0242,0
382,15.583,1.6200,-0.0180,0
383,15.617,1.4120,-0.0454,0
384,15.651,1.7900,0.0094,0
385,15.688,1.9320,0.0707,0
386,15.723,1.8500,0.1109,0
387,15.759,0.8060,-0.0584,0
388,15.794,0.7160,-0.2246,0
389,15.830,1.6980,-0.1666,0
390,15.867,1.9900,-0.0438,0
391,15.902,2.2320,0.1036,0
392,15.939,2.2960,0.2164,0
393,15.974,2.3380,0.3236,0
394,16.008,2.1700,0.3848,0
395,16.046,1.4500,0.2742,0
396,16.081,1.4100,0.1747,0
397,16.117,1.6460,0.1538,0
398,16.152,1.8320,0.1703,0
399,16.188,1.8880,0.1875,0
400,16.224,1.7020,0.1728,0
401,16.260,1.4620,0.1143,0
402,16.297,1.1020,-0.0148,0
403,16.332,1.3780,-0.0592,0
404,16.368,1.7820,-0.0075,0
405,16.407,1.8000,0.0330,0
406,16.443,1.5620,0.0171,0
407,16.480,0.0000,-0.3010,0
408,16.516,1.5900,-0.2447,0
409,16.552,2.1060,-0.1051,0
410,16.588,2.2360,0.0567,0
411,16.624,2.0960,0.1534,0
412,16.660,2.0420,0.1975,0
413,16.695,2.0060,0.2402,0
414,16.730,1.5920,0.2024,0
415,16.770,1.8740,0.2054,0
416,16.805,1.8580,0.2048,0
417,16.842,1.5760,0.1715,0
418,16.882,1.4600,0.1063,0
419,16.920,1.9140,0.1287,0
420,16.958,1.7060,0.1296,0
421,16.993,1.4700,0.0865,0
422,17.029,1.1180,-0.0453,0
423,17.066,1.5360,-0.0557,0
424,17.102,1.8640,0.0193,0
425,17.142,1.8340,0.0551,0
426,17.178,0.0940,-0.2655,0
427,17.216,1.2580,-0.2733,0
428,17.253,2.1400,-0.1201,0
429,17.290,2.1440,0.0086,0
430,17.326,1.8840,0.0773,0
431,17.363,1.8180,0.1007,0
432,17.400,2.1680,0.1794,0
433,17.437,2.1760,0.2658,0
434,17.473,1.8280,0.2622,0
435,17.513,1.3060,0.1344,0
436,17.551,1.6620,0.1146,0
437,17.589,1.8380,0.1438,0
438,17.627,1.4520,0.0765,0
439,17.665,1.4140,0.0144,0
440,17.703,1.8640,0.0650,0
441,17.740,1.6240,0.0528,0
442,17.776,1.5840,0.0305,0
443,17.813,1.4300,-0.0124,0
444,17.852,2.0060,0.0682,0
445,17.894,0.0000,-0.2705,0
446,17.933,1.6300,-0.2132,0
447,17.972,2.2040,-0.0618,0
448,18.010,1.8580,0.0066,0
449,18.047,1.7580,0.0422,0
450,18.085,2.3020,0.1580,0
451,18.122,2.4940,0.2990,0
452,18.160,1.6760,0.2650,0
453,18.198,1.4200,0.1650,0
454,18.235,1.8300,0.1566,0
455,18.278,1.4800,0.1064,0
456,18.317,1.5500,0.0765,0
457,18.355,1.8900,0.0947,0
458,18.392,1.6040,0.0726,0
459,18.430,1.0880,-0.0332,0
460,18.468,1.7600,-0.0154,0
461,18.506,1.8500,0.0198,0
462,18.545,1.5080,0.0137,0
463,18.584,0.1940,-0.2750,0
464,18.622,1.7600,-0.2171,0
465,18.664,1.6060,-0.1704,0
466,18.703,2.1580,-0.0075,0
467,18.743,1.9440,0.0398,0
468,18.782,1.9740,0.0951,0
469,18.821,2.3660,0.2453,0
470,18.863,1.3900,0.1426,0
471,18.903,1.7920,0.1304,0
472,18.942,1.6080,0.1103,0
473,18.981,1.3640,0.0424,0
474,19.020,1.8460,0.0589,0
475,19.062,1.4180,0.0048,0
476,19.101,1.3740,-0.0306,0
477,19.141,1.8040,-0.0038,0
478,19.182,1.4880,-0.0415,0
479,19.221,1.9640,0.0525,0
480,19.260,0.4640,-0.1928,0
481,19.299,1.1040,-0.2746,0
482,19.339,2.1560,-0.1101,0
483,19.378,1.7160,-0.0575,0
484,19.417,1.9560,0.0138,0
485,19.461,2.0180,0.0817,0
486,19.501,2.1420,0.1797,0
487,19.540,1.9560,0.2097,0
488,19.580,1.3500,0.1008,0
489,19.620,1.8600,0.1298,0
490,19.660,1.5860,0.0978,0
491,19.700,1.5880,0.0623,0
492,19.741,1.8200,0.0846,0
493,19.781,1.2580,-0.0014,0
494,19.820,1.7900,0.0271,0
495,19.865,1.4820,-0.0166,0
496,19.906,1.9840,0.0631,0
497,19.947,0.9440,-0.0850,0
498,19.986,1.1920,-0.1628,0
499,20.026,1.8440,-0.0916,0
500,20.066,1.7480,-0.0432,0
501,20.106,2.2300,0.0858,0
502,20.145,1.8660,0.1086,0
503,20.185,2.2760,0.2195,0
504,20.225,1.8660,0.2235,0
505,20.268,1.6500,0.1756,0
506,20.309,1.6780,0.1460,0
507,20.350,1.4600,0.0832,0
508,20.391,1.8160,0.0979,0
509,20.431,1.3540,0.0167,0
510,20.472,1.9200,0.0724,0
511,20.512,1.1060,-0.0508,0
512,20.553,1.8440,-0.0037,0
513,20.593,1.6840,0.0041,0
514,20.633,1.6820,0.0154,0
515,20.678,0.0880,-0.2979,0
516,20.720,1.9440,-0.1833,0
517,20.760,1.8700,-0.1051,0
518,20.801,1.9400,-0.0107,0
519,20.842,2.1480,0.0921,0
520,20.887,2.4340,0.2213,0
521,20.929,1.7280,0.2037,0
522,20.971,1.9180,0.2235,0
523,21.013,1.3880,0.1113,0
524,21.054,1.8500,0.1308,0
525,21.098,1.3660,0.0584,0
526,21.140,1.8740,0.0825,0
527,21.183,1.4220,0.0131,0
528,21.224,1.8400,0.0612,0
529,21.265,1.1680,-0.0498,0
530,21.307,1.8900,-0.0029,0
531,21.348,1.4100,-0.0441,0
532,21.390,1.8860,0.0200,0
533,21.431,0.1740,-0.2884,0
534,21.473,2.1580,-0.1297,0
535,21.518,1.9280,-0.0443,0
536,21.561,1.9340,0.0274,0
537,21.604,2.3540,0.1590,0
538,21.645,2.0760,0.2113,0
539,21.688,1.9720,0.2402,0
540,21.730,1.3920,0.1369,0
541,21.772,1.8940,0.1504,0
542,21.814,1.3380,0.0601,0
543,21.858,1.8280,0.0861,0
544,21.901,1.6200,0.0527,0
545,21.946,1.4480,0.0025,0
546,21.990,1.6200,0.0005,0
547,22.033,1.4500,-0.0479,0
548,22.075,1.8520,-0.0012,0
549,22.118,1.6700,0.0089,0
550,22.160,0.0560,-0.3107,0
551,22.203,1.8760,-0.2121,0
552,22.245,1.7360,-0.1563,0
553,22.288,2.2020,0.0003,0
554,22.331,1.7740,0.0228,0
555,22.378,2.1420,0.1072,0
556,22.421,1.9760,0.1584,0
557,22.464,1.3280,0.0682,0
558,22.507,1.8700,0.0856,0
559,22.551,1.4520,0.0258,0
560,22.594,1.5760,0.0182,0
561,22.637,1.7700,0.0293,0
562,22.680,1.3640,-0.0426,0
563,22.724,1.6520,-0.0214,0
564,22.767,1.4320,-0.0631,0
565,22.811,1.5640,-0.0793,0
566,22.864,0.4720,-0.2895,0
567,22.908,1.5540,-0.2451,0
568,22.954,2.0860,-0.1255,0
569,22.998,1.6560,-0.0892,0
570,23.042,2.2080,0.0567,0
571,23.091,2.4760,0.1931,0
572,23.134,1.6320,0.1507,0
573,23.178,1.5720,0.1255,0
574,23.223,1.9220,0.1389,0
575,23.272,1.8660,0.1404,0
576,23.317,1.4080,0.0861,0
577,23.360,1.6500,0.0657,0
578,23.404,1.8500,0.0672,0
579,23.448,1.1300,-0.0346,0
580,23.492,1.8220,0.0186,0
581,23.537,1.7820,0.0126,0
582,23.581,1.2060,-0.0734,0
583,23.626,1.2580,-0.1141,0
584,23.670,1.9840,-0.0485,0
585,23.718,1.8220,-0.0147,0
586,23.764,1.7940,0.0478,0
587,23.808,2.4260,0.1827,0
588,23.855,2.1160,0.2135,0
589,23.903,1.7360,0.2132,0
590,23.949,1.3840,0.1223,0
591,23.994,1.6720,0.0668,0
592,24.038,1.8700,0.1039,0
593,24.083,1.3840,0.0529,0
594,24.128,1.6340,0.0122,0
595,24.177,1.4660,-0.0418,0
596,24.223,1.9400,0.0516,0
597,24.268,1.5260,0.0067,0
598,24.313,1.2980,-0.0896,0
599,24.357,1.3700,-0.1104,0
600,24.402,1.8560,-0.0419,0
601,24.447,1.7280,-0.0436,0
602,24.492,2.2460,0.0908,0
603,24.537,2.3440,0.2261,0
604,24.583,1.6800,0.1680,0
605,24.632,1.3960,0.0755,0
606,24.678,1.6540,0.0732,0
607,24.724,1.9060,0.0978,0
608,24.769,1.5360,0.0413,0
609,24.814,1.3760,-0.0102,0
610,24.862,1.6180,-0.0191,0
611,24.908,1.7660,-0.0118,0
612,24.954,1.7280,0.0133,0
613,24.999,1.4560,-0.0215,0
614,25.045,1.7880,-0.0095,0
615,25.094,0.1940,-0.3003,0
616,25.140,2.1760,-0.1229,0
617,25.186,1.9380,-0.0605,0
618,25.232,1.7320,-0.0320,0
619,25.278,2.2220,0.1033,0
620,25.324,2.4220,0.2210,0
621,25.369,1.6560,0.1689,0
622,25.416,1.3600,0.0920,0
623,25.462,1.5840,0.0478,0
624,25.508,1.8880,0.0654,0
625,25.557,1.8760,0.1103,0
626,25.605,1.8500,0.1298,0
627,25.652,1.5080,0.0514,0
628,25.698,1.1540,-0.0560,0
629,25.745,1.6780,-0.0310,0
630,25.791,1.9420,0.0120,0
631,25.838,1.3100,-0.0626,0
632,25.886,1.3720,-0.0909,0
633,25.934,1.6600,-0.0878,0
634,25.981,1.7460,-0.0655,0
635,26.031,1.8720,0.0087,0
636,26.079,2.1860,0.1089,0
637,26.126,1.9500,0.1255,0
638,26.172,1.8680,0.1534,0
639,26.219,1.4860,0.0939,0
640,26.266,1.3300,-0.0125,0
641,26.313,1.5100,-0.0420,0
642,26.360,1.8080,0.0085,0
643,26.407,1.8060,0.0228,0
644,26.454,1.6520,0.0072,0
645,26.504,1.8000,0.0457,0
646,26.552,1.6840,0.0359,0
647,26.599,0.0000,-0.3149,0
648,26.646,1.7960,-0.2191,0
649,26.694,2.0560,-0.1016,0
650,26.741,2.2160,0.0277,0
651,26.790,2.3600,0.1682,0
652,26.837,1.9760,0.1947,0
653,26.885,1.4580,0.1087,0
654,26.934,1.3840,0.0320,0
655,26.984,1.3460,-0.0405,0
656,27.031,1.3780,-0.0957,0
657,27.080,1.5460,-0.0996,0
658,27.127,1.7920,-0.0530,0
659,27.175,1.6560,-0.0475,0
660,27.223,1.8480,-0.0015,0
661,27.271,1.7020,0.0077,0
662,27.319,0.4680,-0.2326,0
663,27.367,1.2700,-0.2675,0
664,27.415,1.6860,-0.2144,0
665,27.465,1.7220,-0.1526,0
666,27.514,1.9740,-0.0553,0
667,27.562,2.1920,0.0553,0
668,27.610,1.8580,0.0868,0
669,27.659,1.8960,0.1232,0
670,27.707,1.8760,0.1330,0
671,27.755,1.7140,0.1138,0
672,27.803,1.5440,0.0751,0
673,27.853,1.5460,0.0316,0
674,27.904,1.3880,-0.0376,0
675,27.956,1.8120,0.0059,0
676,28.005,1.7720,0.0268,0
677,28.053,0.6060,-0.1946,0
678,28.101,1.2640,-0.2329,0
679,28.149,1.6520,-0.1905,0
680,28.197,1.8460,-0.1154,0
681,28.246,2.1960,0.0199,0
682,28.294,2.3800,0.1594,0
683,28.342,1.9500,0.1840,0
684,28.390,1.8500,0.1878,0
685,28.441,1.8720,0.1889,0
686,28.490,1.8140,0.1764,0
687,28.539,1.7380,0.1578,0
688,28.588,1.6240,0.1169,0
689,28.636,1.1200,-0.0208,0
690,28.684,1.4300,-0.0643,0
691,28.733,1.4000,-0.1052,0
692,28.782,1.3800,-0.1425,0
693,28.831,0.8200,-0.2817,0
694,28.881,1.7460,-0.2089,0
695,28.935,1.7000,-0.1625,0
696,28.987,1.9780,-0.0608,0
697,29.036,1.9500,0.0113,0
698,29.085,1.3880,-0.0482,0
699,29.133,1.3820,-0.0919,0
700,29.182,1.3900,-0.1268,0
701,29.231,1.5360,-0.1284,0
702,29.279,1.6880,-0.0950,0
703,29.328,1.7800,-0.0483,0
704,29.377,1.9200,0.0127,0
705,29.429,1.6160,0.0024,0
706,29.479,1.8540,0.0444,0
707,29.527,2.0140,0.1041,0
708,29.576,0.2800,-0.1898,0
709,29.625,2.1480,-0.0517,0
710,29.673,2.1280,0.0421,0
711,29.722,2.0100,0.1141,0
712,29.770,2.0880,0.1843,0
713,29.819,1.7440,0.1516,0
714,29.869,1.4300,0.0770,0
715,29.922,1.6700,0.0724,0
716,29.971,1.5680,0.0291,0
717,30.020,1.5260,-0.0072,0
718,30.069,1.4400,-0.0390,0
719,30.119,1.4140,-0.0845,0
720,30.168,1.1620,-0.1751,0
721,30.216,1.3880,-0.1851,0
722,30.265,1.4980,-0.1776,0
723,30.314,0.5180,-0.3753,0
724,30.363,1.7340,-0.2793,0
725,30.415,1.8080,-0.1900,0
726,30.463,2.0040,-0.0798,0
727,30.513,2.2140,0.0519,0
728,30.562,2.1860,0.1507,0
729,30.611,1.8860,0.1682,0
730,30.660,1.9320,0.1904,0
731,30.709,1.8540,0.1912,0
732,30.758,1.8300,0.1879,0
733,30.807,1.7840,0.1753,0
734,30.858,1.9000,0.1868,0
735,30.912,1.6640,0.1499,0
736,30.961,1.9100,0.1698,0
737,31.010,2.0400,0.2083,0
738,31.059,0.3340,-0.0963,0
739,31.109,2.1400,0.0178,0
740,31.158,2.1720,0.1039,0
741,31.207,2.1460,0.1898,0
742,31.256,2.2580,0.2759,0
743,31.306,1.7920,0.2316,0
744,31.355,1.4960,0.1526,0
745,31.407,1.7120,0.1378,0
746,31.456,1.6660,0.0972,0
747,31.505,1.5040,0.0410,0
748,31.554,1.4300,-0.0052,0
749,31.604,1.1300,-0.1185,0
750,31.653,1.3800,-0.1618,0
751,31.702,1.4000,-0.1749,0
752,31.752,1.3560,-0.1987,0
753,31.801,0.5960,-0.3808,0
754,31.853,1.6160,-0.3117,0
755,31.906,1.9280,-0.1918,0
756,31.957,2.1520,-0.0552,0
757,32.006,2.1920,0.0633,0
758,32.055,1.6040,0.0440,0
759,32.105,1.4920,0.0011,0
760,32.153,1.3920,-0.0576,0
761,32.202,1.3340,-0.1085,0
762,32.251,1.3400,-0.1478,0
763,32.300,1.4200,-0.1697,0
764,32.349,1.1840,-0.2286,0
765,32.401,1.4320,-0.2219,0
766,32.452,1.4480,-0.2212,0
767,32.502,0.8540,-0.3345,0
768,32.552,1.1420,-0.3620,0
769,32.601,1.6620,-0.2899,0
770,32.651,1.7580,-0.2082,0
771,32.700,1.9780,-0.0887,0
772,32.749,2.0160,0.0034,0
773,32.799,1.5680,-0.0146,0
774,32.849,1.5140,-0.0292,0
775,32.904,1.4120,-0.0686,0
776,32.954,1.3980,-0.1084,0
777,33.003,1.3840,-0.1323,0
778,33.053,1.3680,-0.1547,0
779,33.102,1.1160,-0.2316,0
780,33.151,1.3960,-0.2310,0
781,33.201,1.4020,-0.2244,0
782,33.251,0.5740,-0.3885,0
783,33.300,1.4120,-0.3545,0
784,33.349,1.8320,-0.2409,0
785,33.400,1.7700,-0.1542,0
786,33.451,1.9440,-0.0555,0
787,33.500,1.8680,0.0024,0
788,33.549,1.5020,-0.0153,0
789,33.598,1.5680,-0.0180,0
790,33.648,1.6360,-0.0169,0
791,33.697,1.7140,0.0081,0
792,33.746,1.7600,0.0423,0
793,33.795,1.9160,0.0895,0
794,33.844,1.6440,0.0749,0
795,33.898,1.6980,0.0835,0
796,33.948,1.7000,0.0807,0
797,33.997,1.1640,-0.0307,0
798,34.047,1.5640,-0.0297,0
799,34.095,2.1600,0.0827,0
800,34.145,2.2940,0.1970,0
801,34.196,2.3100,0.3022,0
802,34.245,2.3820,0.3940,0
803,34.294,1.9540,0.3732,0
804,34.343,1.8840,0.3515,0
805,34.394,1.8860,0.3324,0
806,34.442,1.8300,0.2970,0
807,34.491,1.7040,0.2499,0
808,34.540,1.5860,0.1923,0
809,34.589,1.0320,0.0269,0
810,34.638,1.3700,-0.0370,0
811,34.687,1.4320,-0.0696,0
812,34.736,0.0000,-0.3796,0
813,34.785,1.6140,-0.3128,0
814,34.834,1.7660,-0.2309,0
815,34.886,1.8840,-0.1204,0
816,34.938,2.2480,0.0293,0
817,34.989,1.8960,0.0652,0
818,35.038,1.5520,0.0449,0
819,35.087,1.5600,0.0273,0
820,35.136,1.5020,-0.0178,0
821,35.185,1.3940,-0.0602,0
822,35.234,1.4200,-0.0792,0
823,35.283,1.2220,-0.1538,0
824,35.332,1.5120,-0.1519,0
825,35.383,1.4280,-0.1500,0
826,35.433,0.5080,-0.3415,0
827,35.482,1.3240,-0.3431,0
828,35.531,1.8040,-0.2358,0
829,35.581,2.0080,-0.0984,0
830,35.630,2.2320,0.0398,0
831,35.680,2.1980,0.1428,0
832,35.729,1.7940,0.1601,0
833,35.779,1.8400,0.1713,0
834,35.828,1.8420,0.1686,0
835,35.880,1.7500,0.1661,0
836,35.930,1.7820,0.1701,0
837,35.980,1.5280,0.1045,0
838,36.029,1.8320,0.1232,0
839,36.078,1.8380,0.1487,0
840,36.128,1.7360,0.1346,0
841,36.177,1.2300,0.0218,0
842,36.226,1.9840,0.0936,0
843,36.275,2.0460,0.1544,0
844,36.324,2.0740,0.2074,0
845,36.387,1.9300,0.2291,0
846,36.436,1.4400,0.1438,0
847,36.486,1.4660,0.0735,0
848,36.536,1.4420,0.0185,0
849,36.585,1.4700,-0.0155,0
850,36.634,1.5660,-0.0313,0
851,36.683,1.4860,-0.0582,0
852,36.732,1.6440,-0.0408,0
853,36.781,1.8240,0.0027,0
854,36.831,1.9500,0.0603,0
855,36.884,0.3840,-0.1956,0
856,36.935,1.6580,-0.1521,0
857,36.984,1.7600,-0.1106,0
858,37.034,2.0320,0.0009,0
859,37.083,2.3240,0.1466,0
860,37.132,1.8800,0.1533,0
861,37.181,1.7520,0.1469,0
862,37.231,1.7600,0.1506,0
863,37.280,1.8100,0.1442,0
864,37.330,1.8580,0.1528,0
865,37.382,1.6720,0.1385,0
866,37.432,1.5860,0.0958,0
867,37.482,1.7200,0.0798,0
868,37.531,1.8600,0.1130,0
869,37.580,0.8080,-0.0708,0
870,37.629,1.8580,-0.0264,0
871,37.679,2.1860,0.0806,0
872,37.728,2.2580,0.2017,0
873,37.778,2.4780,0.3234,0
874,37.828,2.3360,0.3813,0
875,37.881,1.8560,0.3552,0
876,37.931,1.8300,0.3214,0
877,37.980,1.7920,0.2641,0
878,38.030,1.8020,0.2404,0
879,38.079,1.8480,0.2392,0
880,38.129,1.5760,0.1593,0
881,38.178,1.8840,0.1627,0
882,38.228,1.8920,0.1853,0
883,38.278,1.6300,0.1362,0
884,38.327,1.5720,0.0760,0
885,38.379,2.1680,0.1640,0
886,38.429,2.2000,0.2391,0
887,38.479,2.3920,0.3241,0
888,38.528,2.4000,0.4009,0
889,38.577,1.9300,0.3758,0
890,38.625,1.6780,0.2912,0
891,38.674,1.5660,0.1980,0
892,38.723,1.5280,0.1296,0
893,38.772,1.4480,0.0536,0
894,38.821,1.1620,-0.0731,0
895,38.874,1.5300,-0.0904,0
896,38.923,1.5520,-0.0976,0
897,38.973,1.5360,-0.1142,0
898,39.022,0.7820,-0.2733,0
899,39.072,1.6820,-0.2168,0
900,39.121,1.6840,-0.1802,0
901,39.170,1.7620,-0.1265,0
902,39.220,1.9440,-0.0443,0
903,39.268,1.5500,-0.0667,0
904,39.316,1.6360,-0.0642,0
905,39.368,1.4800,-0.0886,0
906,39.417,1.5880,-0.0916,0
907,39.465,1.7440,-0.0650,0
908,39.513,1.8920,-0.0069,0
909,39.561,1.7180,0.0037,0
910,39.609,1.7520,0.0128,0
911,39.657,1.5680,-0.0131,0
912,39.705,1.1300,-0.1168,0
913,39.753,0.9700,-0.2382,0
914,39.801,1.7120,-0.1894,0
915,39.857,1.9040,-0.1028,0
916,39.908,2.1300,0.0136,0
917,39.958,2.0400,0.0791,0
918,40.007,1.5600,0.0399,0
919,40.055,1.3960,-0.0196,0
920,40.103,1.3920,-0.0781,0
921,40.152,1.4360,-0.1144,0
922,40.200,1.6260,-0.0957,0
923,40.248,1.7360,-0.0650,0
924,40.297,1.8020,-0.0313,0
925,40.348,1.6640,-0.0226,0
926,40.397,1.9060,0.0304,0
927,40.445,2.0080,0.0843,0
928,40.493,0.4280,-0.1772,0
929,40.541,1.8360,-0.1057,0
930,40.590,1.7800,-0.0770,0
931,40.637,1.7220,-0.0439,0
932,40.685,1.9880,0.0378,0
933,40.733,1.9380,0.0702,0
934,40.781,1.7860,0.0785,0
935,40.831,1.7300,0.0867,0
936,40.880,1.7420,0.0739,0
937,40.933,1.5460,0.0251,0
938,40.982,1.7020,0.0373,0
939,41.031,1.8160,0.0560,0
940,41.080,1.9100,0.0796,0
941,41.128,1.7060,0.0778,0
942,41.176,1.7980,0.0918,0
943,41.224,1.5780,0.0401,0
944,41.272,1.4100,-0.0199,0
945,41.329,1.6260,-0.0172,0
946,41.378,2.1540,0.0706,0
947,41.425,2.0160,0.1199,0
948,41.473,2.0140,0.1760,0
949,41.522,1.9880,0.1961,0
950,41.570,1.4420,0.0979,0
951,41.618,1.4700,0.0454,0
952,41.666,1.6560,0.0297,0
953,41.714,1.8600,0.0457,0
954,41.762,1.9160,0.0890,0
955,41.813,1.8760,0.1164,0
956,41.863,1.8860,0.1207,0
957,41.912,1.8640,0.1296,0
958,41.961,1.7340,0.1230,0
959,42.009,1.7440,0.1018,0
960,42.057,1.5720,0.0486,0
961,42.105,0.2900,-0.2295,0
962,42.152,1.2640,-0.2698,0
963,42.200,1.8520,-0.2015,0
964,42.248,2.0620,-0.0734,0
965,42.299,2.2020,0.0578,0
966,42.347,2.3220,0.1554,0
967,42.395,1.8720,0.1610,0
968,42.443,1.7540,0.1596,0
969,42.492,1.6040,0.0969,0
970,42.539,1.3840,0.0041,0
971,42.588,1.3260,-0.0526,0
972,42.635,1.4400,-0.0945,0
973,42.683,1.6580,-0.0997,0
974,42.730,1.5900,-0.0874,0
975,42.780,1.9020,-0.0174,0
976,42.828,1.9440,0.0191,0
977,42.877,1.8660,0.0532,0
978,42.925,1.0480,-0.0680,0
979,42.973,1.6840,-0.0688,0
980,43.021,1.6400,-0.0774,0
981,43.069,1.7900,-0.0203,0
982,43.117,2.1480,0.0747,0
983,43.164,2.0020,0.1030,0
984,43.211,1.9040,0.1394,0
985,43.263,1.9060,0.1638,0
986,43.309,1.7680,0.1252,0
987,43.357,1.4920,0.0621,0
988,43.404,1.3440,-0.0035,0
989,43.452,1.4680,-0.0633,0
990,43.500,1.6720,-0.0646,0
991,43.547,1.6460,-0.0414,0
992,43.595,1.8920,0.0042,0
993,43.642,1.7480,-0.0028,0
994,43.689,1.3420,-0.0576,0
995,43.739,1.0680,-0.1621,0
996,43.787,1.6720,-0.1544,0
997,43.835,1.8500,-0.0890,0
998,43.883,2.0520,0.0221,0
999,43.931,2.4060,0.1476,0
1000,43.979,1.9900,0.1681,0
1001,44.027,1.8320,0.1835,0
1002,44.074,1.5120,0.1060,0
1003,44.121,1.3560,-0.0023,0
1004,44.168,1.5200,-0.0240,0
1005,44.218,1.5140,-0.0471,0
1006,44.265,1.7500,-0.0447,0
1007,44.312,1.8860,0.0051,0
1008,44.360,1.5320,-0.0109,0
1009,44.407,1.4500,-0.0685,0
1010,44.454,1.4120,-0.1212,0
1011,44.501,1.6520,-0.0885,0
1012,44.549,0.5020,-0.3063,0
1013,44.596,2.1960,-0.1595,0
1014,44.643,2.0780,-0.0455,0
1015,44.693,2.2360,0.0926,0
1016,44.741,2.1700,0.1583,0
1017,44.788,1.6720,0.1151,0
1018,44.835,1.4520,0.0624,0
1019,44.883,1.6480,0.0360,0
1020,44.931,1.8100,0.0357,0
1021,44.978,1.8920,0.0829,0
1022,45.025,1.6520,0.0660,0
1023,45.072,1.3920,-0.0249,0
1024,45.119,1.4260,-0.0707,0
1025,45.170,1.3780,-0.1051,0
1026,45.218,1.3740,-0.1583,0
1027,45.265,1.8160,-0.1083,0
1028,45.312,1.9720,-0.0148,0
1029,45.359,1.0860,-0.1302,0
1030,45.411,1.7600,-0.1023,0
1031,45.456,1.7520,-0.0646,0
1032,45.503,1.7260,-0.0310,0
1033,45.550,2.1080,0.0496,0
1034,45.597,2.4800,0.1924,0
1035,45.647,1.9660,0.2249,0
1036,45.695,1.9180,0.2241,0
1037,45.741,1.6020,0.1456,0
1038,45.788,1.4260,0.0721,0
1039,45.836,1.4360,0.0126,0
1040,45.883,1.6720,-0.0101,0
1041,45.930,1.8960,0.0334,0
1042,45.977,1.6000,0.0226,0
1043,46.023,1.4680,-0.0356,0
1044,46.069,1.4520,-0.0861,0
1045,46.119,1.5400,-0.0863,0
1046,46.166,0.1960,-0.3645,0
1047,46.213,2.1740,-0.2091,0
1048,46.259,1.9840,-0.1071,0
1049,46.306,1.7860,-0.0441,0
1050,46.352,1.9760,0.0132,0
1051,46.398,2.0780,0.0756,0
1052,46.445,1.8380,0.1101,0
1053,46.491,1.4820,0.0502,0
1054,46.538,1.3120,-0.0552,0
1055,46.587,1.2860,-0.1164,0
1056,46.634,1.5040,-0.1162,0
1057,46.680,1.8460,-0.0772,0
1058,46.726,1.6300,-0.0738,0
1059,46.773,1.4040,-0.0948,0
1060,46.819,1.4840,-0.1248,0
1061,46.867,1.7260,-0.1043,0
1062,46.920,0.0320,-0.3914,0
1063,46.965,2.0420,-0.2378,0
1064,47.011,2.1560,-0.1213,0
1065,47.060,2.2180,0.0337,0
1066,47.108,2.1300,0.1366,0
1067,47.154,1.6980,0.0858,0
1068,47.200,1.5800,0.0507,0
1069,47.247,1.8720,0.1043,0
1070,47.293,1.8280,0.0957,0
1071,47.339,1.4460,0.0180,0
1072,47.385,1.4480,-0.0070,0
1073,47.432,1.7980,0.0128,0
1074,47.478,1.7600,0.0051,0
1075,47.528,1.8680,0.0612,0
1076,47.575,1.6940,0.0615,0
1077,47.621,1.5300,-0.0038,0
1078,47.667,0.0560,-0.3201,0
1079,47.714,1.9440,-0.1859,0
1080,47.761,2.0940,-0.0889,0
1081,47.808,1.8980,-0.0215,0
1082,47.860,2.2920,0.1308,0
1083,47.909,2.0260,0.1572,0
1084,47.956,1.3780,0.0569,0
1085,48.005,1.3400,0.0013,0
1086,48.052,1.4340,-0.0555,0
1087,48.098,1.7700,-0.0451,0
1088,48.144,1.8800,0.0235,0
1089,48.191,1.5840,0.0096,0
1090,48.238,1.2620,-0.0962,0
1091,48.284,1.4960,-0.1086,0
1092,48.330,1.9240,-0.0207,0
1093,48.377,1.9260,0.0206,0
1094,48.423,0.0240,-0.3148,0
1095,48.473,1.7480,-0.2207,0
1096,48.520,1.7200,-0.1808,0
1097,48.566,2.0860,-0.0622,0
1098,48.613,2.5180,0.1379,0
1099,48.659,2.2380,0.2185,0
1100,48.706,1.4220,0.1168,0
1101,48.752,1.4140,0.0537,0
1102,48.799,1.6660,0.0388,0
1103,48.846,1.9080,0.0658,0
1104,48.897,1.8220,0.0922,0
1105,48.947,1.8740,0.1202,0
1106,48.995,1.6640,0.0805,0
1107,49.042,1.7020,0.0714,0
1108,49.089,1.4520,0.0231,0
1109,49.136,1.5320,-0.0192,0
1110,49.182,0.2000,-0.3144,0
1111,49.230,2.2000,-0.1363,0
1112,49.277,2.1360,-0.0244,0
1113,49.324,1.9120,0.0310,0
1114,49.370,2.0220,0.1049,0
1115,49.421,1.6740,0.0772,0
1116,49.467,1.5120,0.0254,0
1117,49.514,1.8440,0.0619,0
1118,49.561,1.8220,0.0764,0
1119,49.608,1.6020,0.0414,0
1120,49.655,1.3240,-0.0310,0
1121,49.701,1.5000,-0.0594,0
1122,49.748,1.6440,-0.0615,0
1123,49.794,1.9180,0.0037,0
1124,49.841,1.5840,-0.0087,0
1125,49.892,0.3060,-0.2835,0
1126,49.939,1.5200,-0.2607,0
1127,49.986,1.7240,-0.1970,0
1128,50.032,2.0600,-0.0720,0
1129,50.079,2.4620,0.1000,0
1130,50.127,2.3600,0.2163,0
1131,50.174,1.5160,0.1499,0
1132,50.220,1.4120,0.0677,0
1133,50.268,1.5640,0.0222,0
1134,50.315,1.8180,0.0506,0
1135,50.364,1.8480,0.0821,0
1136,50.412,1.8980,0.1033,0
1137,50.459,1.4920,0.0450,0
1138,50.505,1.3940,-0.0116,0
1139,50.552,1.4980,-0.0501,0
1140,50.599,0.4160,-0.2952,0
1141,50.646,1.7480,-0.2129,0
1142,50.693,1.9580,-0.1178,0
1143,50.740,1.7180,-0.0831,0
1144,50.787,1.8600,-0.0187,0
1145,50.837,1.8780,0.0228,0
1146,50.885,1.4940,-0.0196,0
1147,50.933,1.6080,-0.0193,0
1148,50.980,1.8320,0.0150,0
1149,51.027,1.7880,0.0302,0
1150,51.073,1.4300,-0.0151,0
1151,51.120,1.2960,-0.0839,0
1152,51.167,1.4940,-0.1113,0
1153,51.214,1.8960,-0.0401,0
1154,51.260,1.8240,0.0084,0
1155,51.310,0.2120,-0.2856,0
1156,51.356,1.5440,-0.2568,0
1157,51.403,1.6920,-0.1992,0
1158,51.450,1.9700,-0.0878,0
1159,51.497,2.4020,0.0769,0
1160,51.545,2.3500,0.1959,0
1161,51.592,1.6300,0.1598,0
1162,51.639,1.3400,0.0647,0
1163,51.686,1.3920,-0.0137,0
1164,51.733,1.6340,-0.0134,0
1165,51.783,1.7000,0.0048,0
1166,51.830,1.8340,0.0310,0
1167,51.878,1.6720,0.0247,0
1168,51.926,1.6780,0.0326,0
1169,51.972,1.3900,-0.0315,0
1170,52.019,0.3680,-0.2885,0
1171,52.066,1.6020,-0.2368,0
1172,52.113,2.1800,-0.0883,0
1173,52.160,2.0820,0.0157,0
1174,52.207,1.9280,0.0755,0
1175,52.258,2.0480,0.1351,0
1176,52.305,1.3800,0.0481,0
1177,52.352,1.4780,0.0097,0
1178,52.399,1.7500,0.0230,0
1179,52.446,1.9020,0.0603,0
1180,52.493,1.7640,0.0767,0
1181,52.541,1.4840,0.0294,0
1182,52.588,1.2980,-0.0576,0
1183,52.635,1.4860,-0.0796,0
1184,52.681,1.9140,-0.0068,0
1185,52.731,1.9480,0.0478,0
1186,52.779,0.4520,-0.2011,0
1187,52.827,1.9600,-0.0957,0
1188,52.875,1.8400,-0.0500,0
1189,52.925,1.9160,0.0181,0
1190,52.974,2.1140,0.1140,0
1191,53.022,1.7080,0.0926,0
1192,53.069,1.4660,0.0355,0
1193,53.117,1.6420,0.0326,0
1194,53.164,1.8880,0.0652,0
1195,53.214,1.8880,0.0940,0
1196,53.261,1.8160,0.1156,0
1197,53.309,1.5800,0.0745,0
1198,53.355,1.3860,-0.0035,0
1199,53.402,1.4300,-0.0440,0
1200,53.449,1.7940,-0.0063,0
1201,53.495,1.9420,0.0435,0
1202,53.542,1.7560,0.0572,0
1203,53.589,0.0000,-0.2768,0
1204,53.635,1.7600,-0.2106,0
1205,53.685,1.8700,-0.1372,0
1206,53.733,2.1400,0.0071,0
1207,53.780,2.5400,0.1837,0
1208,53.827,2.1540,0.2289,0
1209,53.874,1.5340,0.1707,0
1210,53.922,1.4040,0.0934,0
1211,53.970,1.4740,0.0157,0
1212,54.016,1.7340,0.0280,0
1213,54.063,1.9260,0.0923,0
1214,54.110,1.7340,0.0760,0
1215,54.160,1.7220,0.0632,0
1216,54.208,1.4920,0.0321,0
1217,54.255,1.2420,-0.0603,0
1218,54.301,1.6820,-0.0613,0
1219,54.348,1.9660,0.0200,0
1220,54.395,0.8780,-0.1280,0
1221,54.442,1.3660,-0.1754,0
1222,54.488,1.6400,-0.1522,0
1223,54.535,1.9100,-0.0534,0
1224,54.582,2.2700,0.0771,0
1225,54.632,2.3420,0.1835,0
1226,54.679,1.8900,0.2060,0
1227,54.727,1.6660,0.1721,0
1228,54.774,1.3800,0.0614,0
1229,54.821,1.3620,-0.0094,0
1230,54.870,1.4460,-0.0378,0
1231,54.918,1.6300,-0.0501,0
1232,54.965,1.8600,-0.0078,0
1233,55.012,1.6000,-0.0023,0
1234,55.059,1.6660,-0.0041,0
1235,55.110,1.7260,-0.0064,0
1236,55.158,1.5660,-0.0130,0
1237,55.205,0.8480,-0.1643,0
1238,55.252,2.0140,-0.0794,0
1239,55.299,2.3380,0.0692,0
1240,55.347,2.4480,0.2335,0
1241,55.394,2.3620,0.3175,0
1242,55.441,1.6020,0.2269,0
1243,55.489,1.2020,0.1041,0
1244,55.535,1.4060,0.0285,0
1245,55.585,1.4780,-0.0361,0
1246,55.633,1.7060,-0.0110,0
1247,55.680,1.8880,0.0455,0
1248,55.727,1.7880,0.0424,0
1249,55.774,1.1700,-0.0649,0
1250,55.821,1.4200,-0.0864,0
1251,55.869,1.6120,-0.0947,0
1252,55.916,1.7400,-0.0688,0
1253,55.964,1.2040,-0.1284,0
1254,56.010,1.8080,-0.0784,0
1255,56.060,1.8920,-0.0359,0
1256,56.108,1.8440,0.0235,0
1257,56.156,1.8760,0.0694,0
1258,56.202,1.5800,0.0174,0
1259,56.249,1.7380,0.0321,0
1260,56.299,1.7260,0.0528,0
1261,56.348,1.8600,0.0663,0
1262,56.399,1.8100,0.0738,0
1263,56.449,1.8460,0.1118,0
1264,56.499,1.7840,0.1072,0
1265,56.551,1.6940,0.0751,0
1266,56.599,1.8860,0.1144,0
1267,56.647,2.0380,0.1690,0
1268,56.697,0.4620,-0.1202,0
1269,56.747,2.1500,0.0008,0
1270,56.795,2.1600,0.1002,0
1271,56.845,2.2500,0.1938,0
1272,56.896,2.4820,0.3140,0
1273,56.945,1.9560,0.3080,0
1274,56.995,1.7860,0.2669,0
1275,57.046,1.8840,0.2465,0
1276,57.096,1.9020,0.2383,0
1277,57.149,1.8880,0.2329,0
1278,57.196,1.9220,0.2276,0
1279,57.244,1.7940,0.1979,0
1280,57.291,1.2860,0.0801,0
1281,57.339,1.4360,0.0098,0
1282,57.387,1.4740,-0.0445,0
1283,57.436,0.6040,-0.2483,0
1284,57.484,1.6800,-0.1991,0
1285,57.535,1.8880,-0.1318,0
1286,57.584,2.0600,-0.0245,0
1287,57.632,2.3920,0.1292,0
1288,57.681,2.3760,0.2290,0
1289,57.730,1.8980,0.2239,0
1290,57.779,1.8360,0.2169,0
1291,57.827,1.6180,0.1474,0
1292,57.877,1.6080,0.0920,0
1293,57.926,1.6180,0.0667,0
1294,57.972,1.3740,-0.0139,0
1295,58.024,1.2640,-0.1087,0
1296,58.078,1.7740,-0.0677,0
1297,58.133,1.8320,-0.0233,0
1298,58.181,0.4500,-0.2721,0
1299,58.226,1.6740,-0.2232,0
1300,58.274,1.6500,-0.1885,0
1301,58.322,1.6580,-0.1526,0
1302,58.369,2.0340,-0.0538,0
1303,58.417,2.1880,0.0526,0
1304,58.465,1.8660,0.0819,0
1305,58.515,1.8380,0.0969,0
1306,58.564,1.8540,0.1020,0
1307,58.612,1.8140,0.1061,0
1308,58.660,1.5740,0.0660,0
1309,58.707,1.3880,-0.0141,0
1310,58.755,1.1700,-0.1203,0
1311,58.802,1.5840,-0.1135,0
1312,58.850,1.7880,-0.0738,0
1313,58.905,0.0680,-0.3836,0
1314,58.965,2.1360,-0.2147,0
1315,59.014,2.1900,-0.0799,0
1316,59.066,2.2380,0.0551,0
1317,59.110,2.1600,0.1454,0
1318,59.157,1.6260,0.0939,0
1319,59.205,1.3660,0.0109,0
1320,59.252,1.5560,-0.0115,0
1321,59.300,1.8120,0.0073,0
1322,59.348,1.9220,0.0491,0
1323,59.395,1.7420,0.0593,0
1324,59.442,1.2220,-0.0480,0
1325,59.494,1.6920,-0.0473,0
1326,59.541,1.4360,-0.0840,0
1327,59.588,1.3420,-0.1293,0
1328,59.636,0.9860,-0.2519,0
1329,59.683,2.0560,-0.1303,0
1330,59.731,2.2160,0.0097,0
1331,59.779,2.2200,0.1170,0
1332,59.828,2.2620,0.2027,0
1333,59.876,1.6420,0.1562,0
1334,59.924,1.3760,0.0669,0
1335,59.976,1.4560,-0.0024,0
1336,60.025,1.4040,-0.0613,0
1337,60.073,1.3520,-0.1077,0
1338,60.122,1.4100,-0.1456,0
1339,60.171,1.2420,-0.2111,0
1340,60.221,1.4620,-0.2051,0
1341,60.270,1.5620,-0.1869,0
1342,60.319,0.6780,-0.3545,0
1343,60.368,1.6920,-0.2761,0
1344,60.416,2.1920,-0.1177,0
1345,60.468,2.1060,-0.0072,0
1346,60.515,2.4620,0.1566,0
1347,60.563,2.3640,0.2615,0
1348,60.612,1.8040,0.2333,0
1349,60.659,1.5060,0.1541,0
1350,60.708,1.3660,0.0566,0
1351,60.757,1.3400,-0.0270,0
1352,60.805,1.3520,-0.0847,0
1353,60.855,1.1960,-0.1640,0
1354,60.904,1.3100,-0.2083,0
1355,60.955,1.4520,-0.2103,0
1356,61.004,1.6020,-0.1791,0
1357,61.051,0.1280,-0.4503,0
1358,61.100,1.9540,-0.3051,0
1359,61.148,1.9480,-0.1920,0
1360,61.195,2.0120,-0.0719,0
1361,61.243,2.2400,0.0593,0
1362,61.291,1.5760,0.0215,0
1363,61.339,1.5040,-0.0076,0
1364,61.388,1.2160,-0.0925,0
1365,61.439,1.0440,-0.2064,0
1366,61.488,0.9080,-0.3135,0
1367,61.536,1.1280,-0.3493,0
1368,61.584,1.6120,-0.2939,0
1369,61.632,1.7040,-0.2252,0
1370,61.681,1.4980,-0.1985,0
1371,61.730,0.1940,-0.4483,0
1372,61.779,2.1520,-0.2665,0
1373,61.827,1.7620,-0.1866,0
1374,61.876,1.8060,-0.0989,0
1375,61.929,2.7780,0.1388,0
1376,61.978,2.4540,0.2655,0
1377,62.029,2.3380,0.3708,0
1378,62.079,2.2440,0.4121,0
1379,62.129,1.8560,0.3524,0
1380,62.178,1.3400,0.2314,0
1381,62.227,1.4140,0.1420,0
1382,62.277,1.5820,0.0770,0
1383,62.327,1.5320,0.0403,0
1384,62.375,0.0000,-0.2799,0
1385,62.427,1.8700,-0.1981,0
1386,62.476,1.7520,-0.1540,0
1387,62.525,1.7980,-0.0627,0
1388,62.574,2.0980,0.0377,0
1389,62.623,1.6940,0.0121,0
1390,62.672,1.5420,0.0085,0
1391,62.721,1.6800,0.0251,0
1392,62.770,1.6500,-0.0087,0
1393,62.818,1.7860,0.0248,0
1394,62.867,1.8060,0.0745,0
1395,62.919,1.6620,0.0426,0
1396,62.969,1.8120,0.0541,0
1397,63.018,0.8260,-0.0963,0
1398,63.066,1.8700,-0.0384,0
1399,63.115,2.0280,0.0174,0
1400,63.164,2.1820,0.1422,0
1401,63.223,1.7540,0.1480,0
1402,63.272,1.5620,0.0710,0
1403,63.323,1.1880,-0.0340,0
1404,63.368,1.6280,-0.0092,0
1405,63.421,1.2780,-0.1022,0
1406,63.471,1.4360,-0.1355,0
1407,63.520,1.4880,-0.1174,0
1408,63.569,1.7860,-0.0715,0
1409,63.618,2.0420,0.0010,0
1410,63.666,1.4960,-0.0112,0
1411,63.715,1.8060,0.0320,0
1412,63.763,2.1040,0.0898,0
1413,63.812,1.9580,0.1393,0
1414,63.862,2.1800,0.2382,0
1415,63.913,2.2200,0.2822,0
1416,63.961,1.5540,0.1964,0
1417,64.010,1.3140,0.1121,0
1418,64.059,1.2900,0.0042,0
1419,64.108,1.3060,-0.0885,0
1420,64.157,1.2940,-0.1232,0
1421,64.206,1.2560,-0.1727,0
1422,64.255,1.5520,-0.1835,0
1423,64.303,1.6560,-0.1380,0
1424,64.352,0.4440,-0.3298,0
1425,64.404,1.6980,-0.2739,0
1426,64.454,1.8420,-0.1934,0
1427,64.504,1.9040,-0.0717,0
1428,64.553,2.3880,0.0877,0
1429,64.602,2.0320,0.1214,0
1430,64.651,1.8340,0.1565,0
