sample_index,timestamp_seconds,raw_voltage,filtered_voltage,lead_off
0,2.051,2.0560,0.1628,0
1,2.543,1.3880,0.2631,0
2,2.694,0.0000,0.2556,0
3,2.746,1.7540,0.3678,0
4,3.259,1.5540,0.4488,0
5,3.414,1.5600,0.5565,0
6,3.810,1.4420,0.6280,0
7,3.835,1.8480,0.7038,0
8,3.924,1.5980,0.7801,0
9,3.960,1.4420,0.8418,0
10,3.991,1.6300,0.8820,0
11,4.058,1.4420,0.9153,0
12,4.084,1.7680,0.9917,0
13,4.111,1.4520,1.0114,0
14,4.138,1.7900,1.0523,0
15,4.172,1.7520,1.1076,0
16,4.201,1.3800,1.1200,0
17,4.232,0.4640,1.0413,0
18,4.259,1.4900,1.0615,0
19,4.286,2.0560,1.1275,0
20,4.314,1.7620,1.1603,0
21,4.341,1.7600,1.1913,0
22,4.369,2.1120,1.2458,0
23,4.396,1.7860,1.2678,0
24,4.424,1.9720,1.3046,0
25,4.449,1.9880,1.3351,0
26,4.477,1.5260,1.3259,0
27,4.505,1.7700,1.3373,0
28,4.533,1.6960,1.3363,0
29,4.561,1.3660,1.3112,0
30,4.589,1.7100,1.3153,0
31,4.615,1.6040,1.3048,0
32,4.643,1.4240,1.2844,0
33,4.670,1.8440,1.2985,0
34,4.698,1.6020,1.2865,0
35,4.727,1.3620,1.2605,0
36,4.756,1.7340,1.2641,0
37,4.782,1.3740,1.2331,0
38,4.810,1.3220,1.2056,0
39,4.837,1.8660,1.2206,0
40,4.864,1.5840,1.2079,0
41,4.891,1.5440,1.1993,0
42,4.917,1.7960,1.2068,0
43,4.945,0.6480,1.1178,0
44,4.972,0.5160,1.0302,0
45,5.003,1.9220,1.0525,0
46,5.031,1.8380,1.0683,0
47,5.058,1.7760,1.0934,0
48,5.084,2.0520,1.1241,0
49,5.112,1.7200,1.1180,0
50,5.139,2.0360,1.1538,0
51,5.167,2.2080,1.1934,0
52,5.194,1.7600,1.1836,0
53,5.222,1.8660,1.1931,0
54,5.249,1.7000,1.1864,0
55,5.279,1.4560,1.1514,0
56,5.307,1.5260,1.1284,0
57,5.341,1.5500,1.1121,0
58,5.364,1.5680,1.0923,0
59,5.392,1.5120,1.0692,0
60,5.419,1.8700,1.0804,0
61,5.447,1.5040,1.0583,0
62,5.473,1.6760,1.0499,0
63,5.499,1.7340,1.0464,0
64,5.527,1.2360,1.0051,0
65,5.556,1.5740,0.9911,0
66,5.584,1.8640,0.9969,0
67,5.612,1.4760,0.9783,0
68,5.639,1.6540,0.9747,0
69,5.666,1.7800,0.9711,0
70,5.693,0.8680,0.9021,0
71,5.721,0.3520,0.8007,0
72,5.748,1.5940,0.7894,0
73,5.782,1.9040,0.8092,0
74,5.806,1.8860,0.8468,0
75,5.839,1.9580,0.8703,0
76,5.868,2.2080,0.9005,0
77,5.895,1.8500,0.9204,0
78,5.923,2.1060,0.9558,0
79,5.952,2.1480,0.9704,0
80,5.980,1.5500,0.9516,0
81,6.007,1.5600,0.9422,0
82,6.033,1.6900,0.9196,0
83,6.061,1.3720,0.8803,0
84,6.088,1.6900,0.8863,0
85,6.118,1.7980,0.8812,0
86,6.146,1.4580,0.8469,0
87,6.173,1.6440,0.8475,0
88,6.199,1.7320,0.8436,0
89,6.230,1.4900,0.8121,0
90,6.255,1.6740,0.8119,0
91,6.291,1.4600,0.7914,0
92,6.318,1.7500,0.7844,0
93,6.345,1.4160,0.7587,0
94,6.372,1.6560,0.7602,0
95,6.402,1.8960,0.7672,0
96,6.426,1.4240,0.7396,0
97,6.454,1.6820,0.7442,0
98,6.481,0.5380,0.6447,0
99,6.508,0.8100,0.5728,0
100,6.535,2.0740,0.6113,0
101,6.563,1.8160,0.6303,0
102,6.589,1.9440,0.6594,0
103,6.616,2.0740,0.6885,0
104,6.643,1.7860,0.6951,0
105,6.671,2.1740,0.7361,0
106,6.700,2.2280,0.7699,0
107,6.727,1.6580,0.7580,0
108,6.755,1.7860,0.7604,0
109,6.781,1.6180,0.7397,0
110,6.808,1.5200,0.7149,0
111,6.835,1.8980,0.7268,0
112,6.863,1.5760,0.7066,0
113,6.889,1.6380,0.6929,0
114,6.916,1.7400,0.6900,0
115,6.945,1.4680,0.6644,0
116,6.973,1.5520,0.6460,0
117,7.000,1.8040,0.6482,0
118,7.027,1.4360,0.6232,0
119,7.054,1.7160,0.6220,0
120,7.080,1.5420,0.6022,0
121,7.107,1.3060,0.5694,0
122,7.135,1.7020,0.5699,0
123,7.163,1.5000,0.5494,0
124,7.189,1.6000,0.5439,0
125,7.228,1.4280,0.5243,0
126,7.251,1.8880,0.5380,0
127,7.278,0.7460,0.4624,0
128,7.305,0.2900,0.3603,0
129,7.332,1.7760,0.3702,0
130,7.359,1.6180,0.3723,0
131,7.387,2.0200,0.4263,0
132,7.413,1.7440,0.4358,0
133,7.440,1.8640,0.4477,0
134,7.468,2.2120,0.5032,0
135,7.500,2.2180,0.5506,0
136,7.524,1.8960,0.5567,0
137,7.551,2.1540,0.5909,0
138,7.578,1.7080,0.5894,0
139,7.605,2.2820,0.6243,0
140,7.632,2.9140,0.7058,0
141,7.659,2.8640,0.7894,0
142,7.686,3.2060,0.8883,0
143,7.712,2.9760,0.9497,0
144,7.739,2.7600,0.9988,0
145,7.768,2.6840,1.0367,0
146,7.797,2.1160,1.0136,0
147,7.824,1.6740,0.9617,0
148,7.850,1.7320,0.9206,0
149,7.877,1.1400,0.8264,0
150,7.904,1.4480,0.7665,0
151,7.932,1.0920,0.6863,0
152,7.959,0.7900,0.5865,0
153,7.986,1.2560,0.5270,0
154,8.012,0.9600,0.4529,0
155,8.041,0.8620,0.3823,0
156,8.069,1.2240,0.3374,0
157,8.097,0.5280,0.2419,0
158,8.124,0.0000,0.1216,0
159,8.152,1.5220,0.1200,0
160,8.178,1.2240,0.0940,0
161,8.205,1.4680,0.1124,0
162,8.237,1.7100,0.1339,0
163,8.264,1.8980,0.1585,0
164,8.292,2.3300,0.2360,0
165,8.322,2.9180,0.3519,0
166,8.349,2.6660,0.4237,0
167,8.376,1.7780,0.4312,0
168,8.403,1.7160,0.4334,0
169,8.431,1.4880,0.3981,0
170,8.458,1.0960,0.3441,0
171,8.485,1.3500,0.3235,0
172,8.512,0.9920,0.2600,0
173,8.539,1.0880,0.2122,0
174,8.566,1.3600,0.2006,0
175,8.596,1.1300,0.1644,0
176,8.624,1.0640,0.1224,0
177,8.652,1.6040,0.1335,0
178,8.679,1.3160,0.1209,0
179,8.706,0.8760,0.0718,0
180,8.734,1.2020,0.0510,0
181,8.762,1.0040,0.0172,0
182,8.789,1.2560,0.0096,0
183,8.817,1.6740,0.0321,0
184,8.844,1.2080,0.0179,0
185,8.873,0.5860,-0.0403,0
186,8.901,0.7740,-0.0878,0
187,8.930,1.5600,-0.0713,0
188,8.958,1.5500,-0.0435,0
189,8.985,2.0040,0.0181,0
190,9.015,2.1120,0.0715,0
191,9.042,1.7240,0.0995,0
192,9.070,2.0000,0.1508,0
193,9.098,1.9540,0.1800,0
194,9.126,1.4700,0.1745,0
195,9.156,1.4140,0.1721,0
196,9.184,1.9100,0.1952,0
197,9.212,1.4200,0.1797,0
198,9.240,1.5020,0.1857,0
199,9.269,1.8820,0.2072,0
200,9.297,1.7940,0.2170,0
201,9.327,1.6120,0.2281,0
202,9.355,1.8980,0.2521,0
203,9.383,2.1640,0.2841,0
204,9.410,1.7200,0.2947,0
205,9.441,1.7140,0.3044,0
206,9.469,1.9820,0.3151,0
207,9.497,1.9460,0.3329,0
208,9.525,1.7740,0.3480,0
209,9.554,1.9760,0.3591,0
210,9.582,2.0240,0.3712,0
211,9.610,1.5440,0.3630,0
212,9.638,1.4180,0.3347,0
213,9.666,0.5280,0.2231,0
214,9.694,1.2540,0.1940,0
215,9.725,1.5360,0.1892,0
216,9.753,1.9680,0.2118,0
217,9.780,1.8540,0.2310,0
218,9.808,1.6600,0.2378,0
219,9.836,2.1080,0.2680,0
220,9.864,2.1640,0.3015,0
221,9.893,1.7940,0.3153,0
222,9.922,1.8280,0.3207,0
223,9.950,1.8880,0.3214,0
224,9.977,1.4080,0.2979,0
225,10.007,1.3920,0.2739,0
226,10.035,1.6820,0.2589,0
227,10.064,1.5940,0.2490,0
228,10.092,1.2940,0.2259,0
229,10.121,1.5720,0.2096,0
230,10.149,1.7160,0.2055,0
231,10.177,1.3700,0.1925,0
232,10.206,1.4340,0.1755,0
233,10.234,1.6900,0.1671,0
234,10.264,1.4620,0.1590,0
235,10.294,1.3340,0.1442,0
236,10.323,1.4200,0.1176,0
237,10.351,1.7880,0.1308,0
238,10.379,1.6060,0.1428,0
239,10.407,1.1500,0.1038,0
240,10.436,0.4940,0.0087,0
241,10.464,1.5340,0.0161,0
242,10.493,1.6280,0.0278,0
243,10.522,1.8820,0.0577,0
244,10.549,2.1220,0.1079,0
245,10.580,1.9720,0.1427,0
246,10.609,1.8700,0.1634,0
247,10.636,2.2280,0.2098,0
248,10.665,2.1380,0.2478,0
249,10.694,1.5280,0.2352,0
250,10.723,1.5140,0.2168,0
251,10.751,1.7020,0.2121,0
252,10.779,1.6900,0.2137,0
253,10.808,1.5140,0.2008,0
254,10.836,1.7920,0.2042,0
255,10.866,1.8860,0.2181,0
256,10.896,1.6880,0.2212,0
257,10.925,1.4540,0.1987,0
258,10.954,1.7540,0.1979,0
259,10.982,1.8700,0.2134,0
260,11.010,1.3960,0.1917,0
261,11.039,1.4260,0.1663,0
262,11.067,1.8360,0.1748,0
263,11.096,1.6940,0.1799,0
264,11.125,1.5420,0.1707,0
265,11.156,1.6320,0.1609,0
266,11.185,1.6560,0.1593,0
267,11.215,0.4840,0.0699,0
268,11.246,1.7100,0.0749,0
269,11.275,1.7320,0.0768,0
270,11.303,2.1420,0.1326,0
271,11.331,2.2160,0.1816,0
272,11.361,1.9300,0.1916,0
273,11.390,2.0880,0.2268,0
274,11.418,2.4300,0.2865,0
275,11.448,2.1620,0.3087,0
276,11.477,1.6360,0.2946,0
277,11.505,1.5220,0.2743,0
278,11.535,1.8080,0.2661,0
279,11.564,1.8700,0.2686,0
280,11.593,1.5140,0.2527,0
281,11.622,1.4820,0.2243,0
282,11.651,1.7700,0.2155,0
283,11.681,1.6440,0.2113,0
284,11.709,1.3400,0.1819,0
285,11.740,1.3140,0.1394,0
286,11.769,1.6440,0.1334,0
287,11.798,1.5700,0.1308,0
288,11.828,1.3680,0.1036,0
289,11.858,1.4180,0.0787,0
290,11.888,1.5720,0.0770,0
291,11.916,1.8600,0.0973,0
292,11.946,1.7000,0.0975,0
293,11.975,0.6320,0.0190,0
294,12.004,0.9680,-0.0283,0
295,12.035,1.9460,-0.0053,0
296,12.065,2.0560,0.0382,0
297,12.095,1.8400,0.0706,0
298,12.125,1.6560,0.0676,0
299,12.155,1.9220,0.0852,0
300,12.184,2.3000,0.1469,0
301,12.213,2.0580,0.1781,0
302,12.246,1.7100,0.1703,0
303,12.276,1.3640,0.1431,0
304,12.304,1.5420,0.1321,0
305,12.336,1.6780,0.1239,0
306,12.365,1.8300,0.1354,0
307,12.394,1.5280,0.1272,0
308,12.423,1.4300,0.1027,0
309,12.453,1.7360,0.1026,0
310,12.482,1.8700,0.1224,0
311,12.511,1.5480,0.1138,0
312,12.541,1.2420,0.0741,0
313,12.571,1.4900,0.0596,0
314,12.600,1.9040,0.0830,0
315,12.631,1.8240,0.0967,0
316,12.661,1.5800,0.0900,0
317,12.690,1.4380,0.0723,0
318,12.720,0.7800,0.0017,0
319,12.749,1.5120,-0.0057,0
320,12.778,1.8160,0.0111,0
321,12.808,1.6840,0.0236,0
322,12.837,1.9080,0.0507,0
323,12.866,2.1460,0.0880,0
324,12.896,1.9960,0.1178,0
325,12.927,1.9280,0.1419,0
326,12.957,1.7540,0.1402,0
327,12.988,1.6560,0.1333,0
328,13.017,1.8280,0.1464,0
329,13.046,1.6500,0.1380,0
330,13.077,1.4580,0.1142,0
331,13.106,1.5020,0.1001,0
332,13.135,1.7280,0.1020,0
333,13.165,1.8160,0.1096,0
334,13.194,1.5540,0.1009,0
335,13.228,1.5240,0.0885,0
336,13.258,1.4060,0.0621,0
337,13.287,1.4360,0.0451,0
338,13.317,1.7000,0.0520,0
339,13.348,1.8220,0.0636,0
340,13.377,1.5220,0.0539,0
341,13.407,1.4000,0.0373,0
342,13.437,1.5620,0.0281,0
343,13.467,0.8740,-0.0331,0
344,13.496,1.1500,-0.0621,0
345,13.527,1.6820,-0.0554,0
346,13.557,1.6240,-0.0495,0
347,13.586,1.9260,-0.0105,0
348,13.615,2.0760,0.0275,0
349,13.645,1.9620,0.0527,0
350,13.677,1.8440,0.0757,0
351,13.707,1.6500,0.0750,0
352,13.746,1.6380,0.0670,0
353,13.776,1.4100,0.0495,0
354,13.806,1.3880,0.0321,0
355,13.839,1.4280,0.0103,0
356,13.870,1.6540,0.0133,0
357,13.899,1.8160,0.0351,0
358,13.929,1.6460,0.0354,0
359,13.960,1.4740,0.0208,0
360,13.989,1.5160,0.0152,0
361,14.019,1.7220,0.0238,0
362,14.051,1.6780,0.0265,0
363,14.080,1.7720,0.0412,0
364,14.111,1.6100,0.0402,0
365,14.144,1.5660,0.0326,0
366,14.175,1.5780,0.0285,0
367,14.204,1.2640,0.0013,0
368,14.235,0.7920,-0.0640,0
369,14.265,1.9720,-0.0330,0
370,14.295,1.8740,-0.0086,0
371,14.326,1.7260,0.0112,0
372,14.355,1.8220,0.0267,0
373,14.385,2.1160,0.0607,0
374,14.415,2.2560,0.1153,0
375,14.448,2.2060,0.1593,0
376,14.478,1.7040,0.1501,0
377,14.508,1.3900,0.1221,0
378,14.538,1.4560,0.1024,0
379,14.568,1.6860,0.0950,0
380,14.599,1.8120,0.1032,0
381,14.629,1.7040,0.1079,0
382,14.659,1.4480,0.0847,0
383,14.690,1.4000,0.0570,0
384,14.720,1.5840,0.0523,0
385,14.753,1.6760,0.0542,0
386,14.783,1.8520,0.0667,0
387,14.813,1.5080,0.0547,0
388,14.843,1.4240,0.0381,0
389,14.874,1.4640,0.0191,0
390,14.905,1.5260,0.0094,0
391,14.936,1.6860,0.0184,0
392,14.967,1.7360,0.0260,0
393,14.998,0.4300,-0.0712,0
394,15.028,1.3240,-0.0872,0
395,15.063,1.9580,-0.0598,0
396,15.095,1.8820,-0.0290,0
397,15.127,1.7720,-0.0043,0
398,15.158,1.7320,0.0004,0
399,15.190,1.8560,0.0173,0
400,15.221,1.9000,0.0477,0
401,15.260,1.5920,0.0427,0
402,15.291,1.3940,0.0165,0
403,15.322,1.4380,0.0041,0
404,15.353,1.5700,0.0026,0
405,15.387,1.6200,-0.0011,0
406,15.418,1.7760,0.0134,0
407,15.448,1.8620,0.0366,0
408,15.478,1.6880,0.0385,0
409,15.509,1.4820,0.0245,0
410,15.541,1.4000,0.0078,0
411,15.570,1.5820,0.0032,0
412,15.601,1.6920,0.0074,0
413,15.632,1.7120,0.0181,0
414,15.663,1.7220,0.0267,0
415,15.695,1.7300,0.0317,0
416,15.727,1.5340,0.0246,0
417,15.757,1.4240,0.0098,0
418,15.788,0.5580,-0.0779,0
419,15.819,1.2680,-0.1015,0
420,15.850,2.0520,-0.0607,0
421,15.881,2.1180,-0.0108,0
422,15.912,1.9560,0.0235,0
423,15.942,1.7900,0.0340,0
424,15.974,1.8580,0.0501,0
425,16.005,1.9220,0.0749,0
426,16.036,1.8900,0.0915,0
427,16.067,1.8440,0.1007,0
428,16.098,1.8400,0.1127,0
429,16.128,1.6940,0.1112,0
430,16.160,1.5300,0.0932,0
431,16.191,1.4400,0.0709,0
432,16.222,1.4460,0.0519,0
433,16.257,1.4360,0.0315,0
434,16.288,1.5100,0.0192,0
435,16.321,1.5000,0.0091,0
436,16.352,1.6580,0.0114,0
437,16.384,1.6740,0.0140,0
438,16.415,1.7160,0.0223,0
439,16.446,1.7960,0.0355,0
440,16.476,1.5320,0.0252,0
441,16.507,1.4520,0.0108,0
442,16.540,1.3140,-0.0150,0
443,16.571,0.1840,-0.1291,0
444,16.602,1.5560,-0.1259,0
445,16.636,1.8680,-0.1015,0
446,16.668,1.9940,-0.0545,0
447,16.699,2.0580,-0.0095,0
448,16.730,2.1080,0.0250,0
449,16.761,2.0260,0.0593,0
450,16.792,1.7960,0.0764,0
451,16.823,1.5480,0.0602,0
452,16.856,1.3980,0.0345,0
453,16.887,1.4680,0.0247,0
454,16.920,1.5780,0.0178,0
455,16.952,1.6340,0.0134,0
456,16.986,1.5380,0.0102,0
457,17.018,1.7080,0.0183,0
458,17.050,1.7960,0.0261,0
459,17.081,1.7880,0.0401,0
460,17.113,1.7220,0.0498,0
461,17.144,1.5860,0.0394,0
462,17.175,1.2160,0.0028,0
463,17.206,1.3500,-0.0157,0
464,17.238,1.4760,-0.0294,0
465,17.273,1.4260,-0.0444,0
466,17.305,1.5300,-0.0435,0
467,17.337,0.8220,-0.1039,0
468,17.369,1.0940,-0.1408,0
469,17.402,1.8760,-0.1104,0
470,17.433,2.0160,-0.0655,0
471,17.465,2.0820,-0.0183,0
472,17.497,2.1280,0.0236,0
473,17.529,2.1600,0.0667,0
474,17.561,2.0740,0.1024,0
475,17.594,1.8300,0.1114,0
476,17.626,1.5280,0.0937,0
477,17.657,1.4240,0.0715,0
478,17.689,1.3980,0.0470,0
479,17.721,1.4580,0.0278,0
480,17.754,1.5000,0.0165,0
481,17.786,1.5660,0.0117,0
482,17.819,1.6680,0.0131,0
483,17.851,1.6680,0.0162,0
484,17.883,1.7980,0.0311,0
485,17.918,1.7020,0.0347,0
486,17.950,1.7540,0.0426,0
487,17.982,1.7320,0.0492,0
488,18.014,1.8480,0.0635,0
489,18.046,1.8140,0.0733,0
490,18.078,1.7180,0.0765,0
491,18.110,1.5060,0.0613,0
492,18.141,0.4000,-0.0424,0
493,18.172,1.0060,-0.0908,0
494,18.205,1.6400,-0.0884,0
495,18.240,1.6720,-0.0734,0
496,18.272,1.6800,-0.0566,0
497,18.304,1.8040,-0.0419,0
498,18.336,1.9960,-0.0089,0
499,18.368,2.0240,0.0316,0
500,18.401,1.8100,0.0444,0
501,18.433,1.7760,0.0497,0
502,18.465,1.8220,0.0650,0
503,18.497,1.7860,0.0751,0
504,18.536,1.5480,0.0600,0
505,18.572,1.4180,0.0391,0
506,18.604,1.4920,0.0267,0
507,18.636,1.5960,0.0195,0
508,18.668,1.6720,0.0214,0
509,18.700,1.7040,0.0289,0
510,18.732,1.8120,0.0408,0
511,18.764,1.8440,0.0537,0
512,18.796,1.6200,0.0521,0
513,18.828,1.6620,0.0513,0
514,18.860,1.5880,0.0407,0
515,18.894,1.6900,0.0438,0
516,18.926,1.6860,0.0469,0
517,18.958,0.8060,-0.0240,0
518,18.989,0.6660,-0.0999,0
519,19.021,1.7000,-0.0906,0
520,19.053,1.8280,-0.0680,0
521,19.085,1.9100,-0.0318,0
522,19.117,2.0120,0.0017,0
523,19.150,2.1800,0.0426,0
524,19.182,2.2800,0.0975,0
525,19.217,1.9500,0.1197,0
526,19.250,1.7560,0.1166,0
527,19.282,1.7980,0.1200,0
528,19.314,1.8200,0.1287,0
529,19.347,1.8100,0.1311,0
530,19.379,1.7360,0.1266,0
531,19.416,1.7600,0.1287,0
532,19.446,1.8080,0.1318,0
533,19.479,1.7540,0.1280,0
534,19.511,1.6840,0.1228,0
535,19.545,1.6940,0.1178,0
536,19.577,1.6040,0.1027,0
537,19.609,1.5340,0.0859,0
538,19.640,1.3800,0.0590,0
539,19.672,1.3340,0.0271,0
540,19.703,1.5700,0.0170,0
541,19.736,1.6100,0.0143,0
542,19.768,1.6780,0.0170,0
543,19.801,1.6300,0.0132,0
544,19.833,0.4560,-0.0812,0
545,19.867,1.6360,-0.0759,0
546,19.900,1.9720,-0.0511,0
547,19.933,2.0280,-0.0082,0
548,19.966,2.0400,0.0314,0
549,19.999,2.1540,0.0628,0
550,20.032,2.2460,0.1075,0
551,20.065,2.1840,0.1514,0
552,20.098,1.9160,0.1578,0
553,20.130,1.8440,0.1565,0
554,20.162,1.7880,0.1603,0
555,20.198,1.8120,0.1604,0
556,20.233,1.7640,0.1506,0
557,20.266,1.7660,0.1499,0
558,20.299,1.8080,0.1527,0
559,20.332,1.8040,0.1474,0
560,20.365,1.8280,0.1488,0
561,20.398,1.8160,0.1531,0
562,20.431,1.8280,0.1516,0
563,20.464,1.8700,0.1533,0
564,20.496,1.6860,0.1461,0
565,20.531,1.8020,0.1451,0
566,20.564,1.8480,0.1433,0
567,20.597,1.8740,0.1504,0
568,20.629,1.8680,0.1567,0
569,20.662,1.0460,0.0910,0
570,20.695,1.3840,0.0590,0
571,20.727,1.8960,0.0698,0
572,20.760,1.9220,0.0848,0
573,20.793,1.8480,0.0952,0
574,20.825,1.7900,0.0956,0
575,20.859,1.9520,0.1082,0
576,20.892,1.9000,0.1197,0
577,20.924,1.6180,0.1069,0
578,20.956,1.4020,0.0735,0
579,20.988,1.3920,0.0430,0
580,21.020,1.4520,0.0219,0
581,21.052,1.5360,0.0076,0
582,21.085,1.5400,-0.0052,0
583,21.118,1.5880,-0.0108,0
584,21.151,1.6000,-0.0161,0
585,21.186,1.4440,-0.0342,0
586,21.219,1.5140,-0.0438,0
587,21.253,1.4840,-0.0559,0
588,21.285,1.5600,-0.0609,0
589,21.319,1.3480,-0.0814,0
590,21.352,1.5080,-0.0876,0
591,21.385,1.6120,-0.0868,0
592,21.418,1.6800,-0.0777,0
593,21.451,1.6320,-0.0723,0
594,21.484,0.8000,-0.1359,0
595,21.520,1.1720,-0.1659,0
596,21.553,1.7240,-0.1515,0
597,21.586,1.7580,-0.1286,0
598,21.619,1.7920,-0.1028,0
599,21.652,1.8760,-0.0797,0
600,21.685,1.9800,-0.0477,0
601,21.718,1.9240,-0.0171,0
602,21.751,1.6920,-0.0129,0
603,21.784,1.6520,-0.0153,0
604,21.817,1.6500,-0.0130,0
605,21.853,1.4880,-0.0239,0
606,21.886,1.4880,-0.0383,0
607,21.919,1.5400,-0.0457,0
608,21.952,1.5540,-0.0481,0
609,21.985,1.6220,-0.0477,0
610,22.018,1.6200,-0.0484,0
611,22.051,1.6580,-0.0424,0
612,22.084,1.6720,-0.0369,0
613,22.117,1.7180,-0.0305,0
614,22.150,1.4900,-0.0401,0
615,22.186,1.4900,-0.0485,0
616,22.219,1.5380,-0.0567,0
617,22.253,1.5140,-0.0635,0
618,22.287,1.5120,-0.0671,0
619,22.320,0.6140,-0.1454,0
620,22.354,0.9620,-0.1915,0
621,22.388,1.6680,-0.1784,0
622,22.422,1.6800,-0.1582,0
623,22.455,1.7260,-0.1338,0
624,22.488,1.7560,-0.1167,0
625,22.523,1.9120,-0.0858,0
626,22.557,1.8480,-0.0569,0
627,22.591,1.5380,-0.0600,0
628,22.623,1.4380,-0.0743,0
629,22.656,1.4360,-0.0835,0
630,22.689,1.3880,-0.0954,0
631,22.722,1.4160,-0.1078,0
632,22.755,1.4160,-0.1171,0
633,22.788,1.4480,-0.1205,0
634,22.821,1.4180,-0.1289,0
635,22.857,1.4860,-0.1314,0
636,22.890,1.4460,-0.1338,0
637,22.923,1.4140,-0.1394,0
638,22.956,1.4120,-0.1470,0
639,22.989,1.3720,-0.1549,0
640,23.022,1.3240,-0.1649,0
641,23.055,1.4840,-0.1640,0
642,23.088,1.5020,-0.1608,0
643,23.121,1.4640,-0.1574,0
644,23.154,1.3620,-0.1650,0
645,23.190,0.2120,-0.2648,0
646,23.223,1.5860,-0.2467,0
647,23.260,1.9440,-0.2054,0
648,23.292,1.9040,-0.1570,0
649,23.325,1.9000,-0.1152,0
650,23.358,1.9300,-0.0862,0
651,23.391,1.9420,-0.0501,0
652,23.423,1.7100,-0.0299,0
653,23.456,1.4960,-0.0401,0
654,23.489,1.3960,-0.0578,0
655,23.525,1.5320,-0.0542,0
656,23.558,1.5300,-0.0562,0
657,23.592,1.5560,-0.0599,0
658,23.625,1.5680,-0.0552,0
659,23.658,1.6080,-0.0481,0
660,23.691,1.5200,-0.0544,0
661,23.725,1.5580,-0.0533,0
662,23.758,1.5480,-0.0505,0
663,23.791,1.5520,-0.0523,0
664,23.824,1.3740,-0.0676,0
665,23.860,1.7580,-0.0475,0
666,23.893,1.7660,-0.0314,0
667,23.927,1.7400,-0.0173,0
668,23.960,1.5620,-0.0168,0
669,23.993,0.5620,-0.0985,0
670,24.026,1.6380,-0.0913,0
671,24.059,1.8460,-0.0684,0
672,24.093,1.8500,-0.0349,0
673,24.126,1.8500,-0.0098,0
674,24.159,1.8920,0.0086,0
675,24.195,2.1460,0.0550,0
676,24.230,1.9760,0.0862,0
677,24.270,1.3640,0.0575,0
678,24.299,1.6440,0.0536,0
679,24.332,1.7300,0.0604,0
680,24.364,1.7680,0.0697,0
681,24.396,1.7560,0.0746,0
682,24.429,1.7720,0.0819,0
683,24.461,1.7260,0.0862,0
684,24.493,1.6840,0.0845,0
685,24.530,1.7920,0.0910,0
686,24.563,1.8060,0.1002,0
687,24.596,1.6200,0.0936,0
688,24.629,1.7960,0.0993,0
689,24.661,1.8100,0.1058,0
690,24.694,1.8180,0.1156,0
691,24.727,1.7040,0.1132,0
692,24.759,0.7000,0.0295,0
693,24.792,1.3220,0.0023,0
694,24.824,1.7160,0.0043,0
695,24.860,1.9080,0.0300,0
696,24.893,1.9120,0.0560,0
697,24.926,2.0040,0.0793,0
698,24.960,2.1680,0.1160,0
699,24.994,2.1040,0.1509,0
700,25.028,1.8780,0.1595,0
701,25.061,1.8040,0.1574,0
702,25.095,1.8580,0.1646,0
703,25.131,1.7960,0.1663,0
704,25.161,1.8100,0.1646,0
705,25.196,1.8680,0.1693,0
706,25.231,1.8100,0.1720,0
707,25.261,1.8320,0.1728,0
708,25.293,1.7140,0.1628,0
709,25.326,1.6480,0.1518,0
710,25.358,1.6380,0.1389,0
711,25.391,1.3360,0.1006,0
712,25.424,1.4480,0.0770,0
713,25.456,1.4560,0.0548,0
714,25.488,1.4320,0.0321,0
715,25.524,1.6380,0.0291,0
716,25.557,0.8420,-0.0367,0
717,25.590,0.9220,-0.0919,0
718,25.623,1.7000,-0.0855,0
719,25.656,1.7300,-0.0702,0
720,25.689,1.7340,-0.0494,0
721,25.722,1.7340,-0.0403,0
722,25.756,1.8140,-0.0257,0
723,25.789,1.7900,-0.0052,0
724,25.822,1.5080,-0.0136,0
725,25.858,1.6340,-0.0175,0
726,25.891,1.5800,-0.0192,0
727,25.924,1.6560,-0.0118,0
728,25.956,1.5820,-0.0184,0
729,25.990,1.5520,-0.0247,0
730,26.022,1.5240,-0.0277,0
731,26.055,1.4620,-0.0404,0
732,26.088,1.4280,-0.0564,0
733,26.122,1.4680,-0.0627,0
734,26.155,1.4120,-0.0744,0
735,26.191,1.5420,-0.0782,0
736,26.224,1.4060,-0.0890,0
737,26.258,1.5760,-0.0834,0
738,26.291,1.5980,-0.0813,0
739,26.324,1.5900,-0.0774,0
740,26.357,1.4700,-0.0804,0
741,26.390,0.2520,-0.1839,0
742,26.423,1.3320,-0.1964,0
743,26.456,1.6840,-0.1803,0
744,26.489,1.7080,-0.1505,0
745,26.525,1.9320,-0.1099,0
746,26.558,1.9940,-0.0765,0
747,26.591,2.0520,-0.0304,0
748,26.624,1.9120,0.0023,0
749,26.657,1.6600,0.0013,0
750,26.691,1.5700,-0.0037,0
751,26.723,1.4980,-0.0082,0
752,26.756,1.4740,-0.0211,0
753,26.789,1.4420,-0.0372,0
754,26.822,1.4340,-0.0454,0
755,26.857,1.6080,-0.0418,0
756,26.891,1.6100,-0.0427,0
757,26.924,1.5660,-0.0406,0
758,26.956,1.5160,-0.0425,0
759,26.990,1.4880,-0.0527,0
760,27.022,1.4080,-0.0651,0
761,27.058,1.5240,-0.0638,0
762,27.091,1.6760,-0.0557,0
763,27.125,1.6720,-0.0474,0
764,27.158,1.7240,-0.0305,0
765,27.194,1.5760,-0.0308,0
766,27.227,0.7900,-0.0956,0
767,27.261,2.0420,-0.0535,0
768,27.298,1.9840,-0.0217,0
769,27.330,1.9720,0.0153,0
770,27.363,2.1180,0.0566,0
771,27.395,2.2880,0.1021,0
772,27.428,2.3260,0.1548,0
773,27.462,2.1480,0.1902,0
774,27.495,1.8940,0.1935,0
775,27.530,1.8580,0.1951,0
776,27.563,1.8400,0.1998,0
777,27.597,1.7480,0.1920,0
778,27.630,1.7920,0.1863,0
779,27.662,1.8640,0.1914,0
780,27.695,1.9000,0.1982,0
781,27.728,1.9500,0.2049,0
782,27.761,1.9360,0.2125,0
783,27.794,1.9260,0.2202,0
784,27.827,1.8040,0.2137,0
785,27.862,1.7880,0.2066,0
786,27.896,1.9820,0.2175,0
787,27.929,2.0120,0.2285,0
788,27.962,2.0680,0.2430,0
789,27.995,1.7760,0.2341,0
790,28.028,0.9380,0.1583,0
791,28.060,2.0400,0.1716,0
792,28.094,2.0260,0.1826,0
793,28.127,2.0220,0.2049,0
794,28.160,2.0500,0.2195,0
795,28.196,2.1400,0.2329,0
796,28.230,2.1000,0.2532,0
797,28.263,1.9020,0.2559,0
798,28.296,1.7300,0.2334,0
799,28.328,1.6980,0.2146,0
800,28.361,1.7080,0.2041,0
801,28.393,1.6980,0.1859,0
802,28.426,1.8520,0.1805,0
803,28.459,1.8600,0.1839,0
804,28.493,1.7820,0.1780,0
805,28.528,1.8180,0.1697,0
806,28.561,1.7580,0.1624,0
807,28.594,1.6680,0.1508,0
808,28.627,1.6100,0.1288,0
809,28.659,1.7420,0.1202,0
810,28.692,1.6940,0.1137,0
811,28.725,1.6320,0.0996,0
812,28.759,1.4560,0.0694,0
813,28.791,0.4200,-0.0363,0
814,28.824,1.6460,-0.0386,0
815,28.860,1.9440,-0.0238,0
816,28.893,2.0120,0.0121,0
817,28.926,2.0320,0.0449,0
818,28.959,2.1060,0.0668,0
819,28.992,2.0840,0.0947,0
820,29.024,1.8460,0.1084,0
821,29.058,1.6120,0.0885,0
822,29.091,1.5860,0.0673,0
823,29.124,1.5920,0.0596,0
824,29.157,1.5440,0.0428,0
825,29.192,1.7240,0.0350,0
826,29.231,1.7240,0.0373,0
827,29.262,1.8300,0.0496,0
828,29.295,1.8280,0.0514,0
829,29.327,1.7800,0.0537,0
830,29.360,1.8420,0.0662,0
831,29.393,1.6360,0.0537,0
832,29.426,1.7320,0.0492,0
833,29.459,1.7200,0.0500,0
834,29.492,1.7540,0.0512,0
835,29.527,1.7720,0.0497,0
836,29.560,0.5940,-0.0404,0
837,29.593,1.6220,-0.0429,0
838,29.625,1.9920,-0.0255,0
839,29.658,1.9600,0.0040,0
840,29.691,1.9640,0.0333,0
841,29.724,1.9840,0.0454,0
842,29.757,2.1320,0.0758,0
843,29.790,1.9960,0.1032,0
844,29.823,1.6700,0.0899,0
845,29.858,1.7300,0.0785,0
846,29.891,1.7100,0.0775,0
847,29.924,1.6380,0.0684,0
848,29.957,1.6180,0.0495,0
849,29.990,1.6320,0.0402,0
850,30.024,1.6100,0.0339,0
851,30.057,1.5960,0.0186,0
852,30.090,1.5780,0.0045,0
853,30.122,1.5000,-0.0079,0
854,30.154,1.3620,-0.0354,0
855,30.189,1.3640,-0.0642,0
856,30.221,1.4580,-0.0768,0
857,30.254,1.4700,-0.0871,0
858,30.287,1.4460,-0.1032,0
859,30.319,1.3400,-0.1234,0
860,30.352,0.1280,-0.2354,0
861,30.384,1.4340,-0.2414,0
862,30.416,1.7900,-0.2222,0
863,30.448,1.9040,-0.1756,0
864,30.480,1.9640,-0.1335,0
865,30.518,1.7740,-0.1240,0
866,30.553,1.8620,-0.0953,0
867,30.586,1.6660,-0.0809,0
868,30.619,1.4280,-0.1003,0
869,30.652,1.4420,-0.1142,0
870,30.685,1.4380,-0.1180,0
871,30.718,1.4280,-0.1298,0
872,30.750,1.4560,-0.1419,0
873,30.783,1.5580,-0.1358,0
874,30.816,1.5480,-0.1322,0
875,30.851,1.4840,-0.1406,0
876,30.884,1.4360,-0.1469,0
877,30.918,1.4520,-0.1489,0
878,30.950,1.4840,-0.1543,0
879,30.983,1.3800,-0.1656,0
880,31.017,1.4800,-0.1633,0
881,31.050,1.5640,-0.1591,0
882,31.083,1.6060,-0.1523,0
883,31.116,1.5380,-0.1460,0
884,31.149,0.5420,-0.2217,0
885,31.184,1.2620,-0.2396,0
886,31.217,1.6920,-0.2216,0
887,31.250,1.7960,-0.1846,0
888,31.283,1.8100,-0.1533,0
889,31.316,1.9040,-0.1253,0
890,31.349,2.0340,-0.0810,0
891,31.382,1.9480,-0.0440,0
892,31.415,1.6560,-0.0422,0
893,31.448,1.5940,-0.0447,0
894,31.481,1.6040,-0.0410,0
895,31.517,1.4700,-0.0524,0
896,31.550,1.4620,-0.0657,0
897,31.583,1.4960,-0.0711,0
898,31.616,1.5020,-0.0756,0
899,31.649,1.5520,-0.0790,0
900,31.682,1.5560,-0.0795,0
901,31.715,1.5860,-0.0754,0
902,31.748,1.4820,-0.0830,0
903,31.781,1.5020,-0.0883,0
904,31.814,1.7020,-0.0751,0
905,31.849,1.5820,-0.0731,0
906,31.882,1.6020,-0.0700,0
907,31.914,1.4420,-0.0799,0
908,31.947,0.4660,-0.1660,0
909,31.980,1.7700,-0.1446,0
910,32.012,1.9280,-0.1149,0
911,32.045,1.9500,-0.0709,0
912,32.078,2.0020,-0.0321,0
913,32.109,2.0780,-0.0008,0
914,32.142,2.1520,0.0450,0
915,32.176,2.0200,0.0794,0
916,32.209,1.7980,0.0811,0
917,32.242,1.7560,0.0819,0
918,32.274,1.7140,0.0866,0
919,32.306,1.6360,0.0776,0
920,32.339,1.6180,0.0648,0
921,32.372,1.6460,0.0629,0
922,32.406,1.6280,0.0580,0
923,32.439,1.5820,0.0441,0
924,32.472,1.6140,0.0387,0
925,32.508,1.7520,0.0467,0
926,32.540,1.6420,0.0404,0
927,32.573,1.5100,0.0259,0
928,32.606,1.6900,0.0291,0
929,32.639,1.6120,0.0225,0
930,32.672,1.6500,0.0206,0
931,32.705,1.4900,0.0081,0
932,32.738,0.2160,-0.1066,0
933,32.771,1.5080,-0.1132,0
934,32.804,1.7760,-0.0998,0
935,32.839,1.9420,-0.0584,0
936,32.873,1.9520,-0.0251,0
937,32.906,2.0380,0.0020,0
938,32.939,2.0680,0.0400,0
939,32.972,1.9200,0.0662,0
940,33.005,1.6800,0.0591,0
941,33.038,1.5480,0.0444,0
942,33.071,1.5480,0.0382,0
943,33.104,1.4880,0.0205,0
944,33.138,1.5320,0.0053,0
945,33.173,1.6820,0.0111,0
946,33.206,1.6620,0.0132,0
947,33.239,1.7500,0.0172,0
948,33.272,1.6860,0.0201,0
949,33.310,1.8320,0.0366,0
950,33.343,1.7800,0.0421,0
951,33.375,1.7380,0.0458,0
952,33.409,1.8820,0.0637,0
953,33.442,1.8780,0.0760,0
954,33.475,1.8180,0.0827,0
955,33.510,1.7360,0.0852,0
956,33.544,0.5700,-0.0076,0
957,33.577,1.8580,0.0053,0
958,33.610,2.0680,0.0329,0
959,33.643,2.1140,0.0767,0
960,33.675,2.1180,0.1104,0
961,33.709,2.2280,0.1404,0
962,33.742,2.2900,0.1841,0
963,33.775,2.0960,0.2110,0
964,33.808,1.8660,0.2051,0
965,33.844,1.7440,0.1926,0
966,33.877,1.7920,0.1920,0
967,33.910,1.8260,0.1866,0
968,33.943,1.8200,0.1793,0
969,33.975,1.8280,0.1811,0
970,34.008,1.8340,0.1800,0
971,34.042,1.8400,0.1740,0
972,34.075,1.8580,0.1759,0
973,34.108,1.8260,0.1762,0
974,34.141,1.8260,0.1702,0
975,34.176,1.7780,0.1630,0
976,34.209,1.7480,0.1580,0
977,34.243,1.8740,0.1586,0
978,34.276,1.8440,0.1557,0
979,34.309,1.8660,0.1605,0
980,34.342,1.7080,0.1494,0
981,34.375,0.5040,0.0400,0
982,34.407,1.8420,0.0469,0
983,34.440,2.0460,0.0664,0
984,34.473,1.9980,0.0923,0
985,34.508,2.1320,0.1235,0
986,34.542,2.1960,0.1477,0
987,34.575,2.2760,0.1852,0
988,34.609,2.1100,0.2096,0
989,34.642,1.8820,0.2034,0
990,34.680,1.5220,0.1700,0
991,34.711,1.7320,0.1621,0
992,34.743,1.7820,0.1521,0
993,34.776,1.8080,0.1452,0
994,34.808,1.8200,0.1460,0
995,34.843,1.8060,0.1418,0
996,34.876,1.7680,0.1314,0
997,34.910,1.7640,0.1267,0
998,34.943,1.7800,0.1234,0
999,34.976,1.7660,0.1146,0
1000,35.008,1.7900,0.1113,0
1001,35.041,1.6980,0.1033,0
1002,35.074,1.6900,0.0913,0
1003,35.107,1.8120,0.0894,0
1004,35.140,1.6260,0.0771,0
1005,35.175,1.7000,0.0701,0
1006,35.208,1.4940,0.0433,0
1007,35.242,0.2760,-0.0738,0
1008,35.275,1.7100,-0.0699,0
1009,35.308,1.8860,-0.0600,0
1010,35.341,1.8800,-0.0325,0
1011,35.374,1.9180,-0.0074,0
1012,35.407,2.0980,0.0146,0
1013,35.440,2.1440,0.0504,0
1014,35.473,1.9420,0.0751,0
1015,35.509,1.7060,0.0629,0
1016,35.541,1.6560,0.0478,0
1017,35.575,1.6440,0.0454,0
1018,35.608,1.6240,0.0340,0
1019,35.641,1.6380,0.0178,0
1020,35.674,1.6540,0.0151,0
1021,35.708,1.6540,0.0127,0
1022,35.740,1.6500,0.0004,0
1023,35.773,1.6120,-0.0080,0
1024,35.806,1.5960,-0.0117,0
1025,35.841,1.6540,-0.0191,0
1026,35.874,1.6420,-0.0264,0
1027,35.908,1.5480,-0.0325,0
1028,35.941,1.5660,-0.0419,0
1029,35.974,1.7180,-0.0431,0
1030,36.007,1.6680,-0.0401,0
1031,36.040,1.6820,-0.0356,0
1032,36.072,1.5520,-0.0498,0
1033,36.105,0.4040,-0.1497,0
1034,36.138,1.5020,-0.1525,0
1035,36.174,1.9380,-0.1307,0
1036,36.207,1.9400,-0.0960,0
1037,36.241,1.9220,-0.0616,0
1038,36.274,1.9340,-0.0449,0
1039,36.307,1.9740,-0.0211,0
1040,36.341,1.8520,0.0020,0
1041,36.373,1.6060,-0.0078,0
1042,36.406,1.5980,-0.0222,0
1043,36.439,1.5980,-0.0241,0
1044,36.473,1.6260,-0.0258,0
1045,36.508,1.6500,-0.0343,0
1046,36.541,1.6040,-0.0381,0
1047,36.574,1.6180,-0.0369,0
1048,36.607,1.6560,-0.0418,0
1049,36.639,1.5900,-0.0493,0
1050,36.672,1.6180,-0.0467,0
1051,36.705,1.5580,-0.0558,0
1052,36.738,1.5960,-0.0634,0
1053,36.772,1.4540,-0.0744,0
1054,36.805,1.5220,-0.0811,0
1055,36.841,1.7040,-0.0788,0
1056,36.874,1.6980,-0.0707,0
1057,36.907,1.6520,-0.0638,0
1058,36.939,1.5440,-0.0737,0
1059,36.972,0.3600,-0.1754,0
1060,37.005,1.4980,-0.1751,0
1061,37.038,1.8840,-0.1531,0
1062,37.071,1.8460,-0.1233,0
1063,37.103,1.8300,-0.0938,0
1064,37.136,1.9420,-0.0717,0
1065,37.171,2.0580,-0.0373,0
1066,37.204,1.9360,-0.0050,0
1067,37.236,1.6540,-0.0081,0
1068,37.269,1.5980,-0.0206,0
1069,37.302,1.6020,-0.0217,0
1070,37.335,1.5740,-0.0265,0
1071,37.367,1.5520,-0.0406,0
1072,37.400,1.5880,-0.0447,0
1073,37.433,1.5680,-0.0463,0
1074,37.466,1.5260,-0.0582,0
1075,37.501,1.5560,-0.0661,0
1076,37.534,1.5660,-0.0664,0
1077,37.567,1.5480,-0.0719,0
1078,37.600,1.5900,-0.0767,0
1079,37.633,1.5180,-0.0814,0
1080,37.666,1.4540,-0.0908,0
1081,37.699,1.5720,-0.0953,0
1082,37.732,1.6340,-0.0914,0
1083,37.764,1.6400,-0.0832,0
1084,37.798,1.4400,-0.0962,0
1085,37.832,0.5820,-0.1773,0
1086,37.866,1.1880,-0.2016,0
1087,37.899,1.6760,-0.1896,0
1088,37.932,1.6960,-0.1696,0
1089,37.964,1.6980,-0.1474,0
1090,37.997,1.7940,-0.1280,0
1091,38.031,1.8520,-0.1038,0
1092,38.064,1.7840,-0.0795,0
1093,38.097,1.5720,-0.0799,0
1094,38.130,1.4320,-0.0958,0
1095,38.165,1.4660,-0.1015,0
1096,38.199,1.4360,-0.1096,0
1097,38.233,1.4420,-0.1212,0
1098,38.266,1.4080,-0.1312,0
1099,38.299,1.3960,-0.1387,0
1100,38.332,1.4120,-0.1488,0
1101,38.365,1.3720,-0.1606,0
1102,38.398,1.3780,-0.1668,0
1103,38.431,1.4100,-0.1727,0
1104,38.464,1.4020,-0.1803,0
1105,38.499,1.2840,-0.1926,0
1106,38.532,1.3640,-0.1983,0
1107,38.565,1.4220,-0.2024,0
1108,38.598,1.4420,-0.2005,0
1109,38.631,1.4500,-0.1965,0
1110,38.664,1.1120,-0.2237,0
1111,38.697,0.4020,-0.3041,0
1112,38.730,1.5700,-0.2854,0
1113,38.763,1.6360,-0.2654,0
1114,38.797,1.6520,-0.2343,0
1115,38.832,1.6780,-0.2077,0
1116,38.865,1.7840,-0.1826,0
1117,38.898,1.8380,-0.1469,0
1118,38.931,1.6240,-0.1281,0
1119,38.964,1.4300,-0.1359,0
1120,38.997,1.3940,-0.1449,0
1121,39.031,1.4400,-0.1428,0
1122,39.063,1.4340,-0.1460,0
1123,39.097,1.4360,-0.1514,0
1124,39.130,1.4580,-0.1486,0
1125,39.165,1.4380,-0.1483,0
1126,39.198,1.4240,-0.1538,0
1127,39.232,1.4560,-0.1528,0
1128,39.265,1.4600,-0.1492,0
1129,39.299,1.3640,-0.1574,0
1130,39.333,1.4080,-0.1612,0
1131,39.365,1.4780,-0.1560,0
1132,39.399,1.5140,-0.1496,0
1133,39.431,1.4820,-0.1475,0
1134,39.464,1.3520,-0.1536,0
1135,39.499,0.1780,-0.2527,0
1136,39.532,1.4140,-0.2503,0
1137,39.565,1.6840,-0.2287,0
1138,39.598,1.6460,-0.1955,0
1139,39.631,1.7040,-0.1661,0
1140,39.664,1.7500,-0.1473,0
1141,39.697,1.8300,-0.1111,0
1142,39.730,1.7580,-0.0801,0
1143,39.762,1.5000,-0.0852,0
1144,39.796,1.4620,-0.0898,0
1145,39.831,1.4300,-0.0885,0
1146,39.863,1.4140,-0.0963,0
1147,39.897,1.4580,-0.1027,0
1148,39.930,1.4020,-0.1042,0
1149,39.963,1.3980,-0.1081,0
1150,39.996,1.4300,-0.1159,0
1151,40.029,1.3880,-0.1201,0
1152,40.062,1.4360,-0.1173,0
1153,40.095,1.4800,-0.1186,0
1154,40.128,1.4580,-0.1190,0
1155,40.163,1.2880,-0.1272,0
1156,40.196,1.3860,-0.1328,0
1157,40.231,1.4380,-0.1362,0
1158,40.264,1.4300,-0.1321,0
1159,40.296,1.4120,-0.1315,0
1160,40.329,0.5420,-0.2058,0
1161,40.363,0.9760,-0.2360,0
1162,40.394,1.7100,-0.2071,0
1163,40.427,1.7980,-0.1701,0
1164,40.459,1.8600,-0.1257,0
1165,40.495,1.7280,-0.1014,0
1166,40.527,1.8760,-0.0689,0
1167,40.560,1.8900,-0.0328,0
1168,40.593,1.6680,-0.0181,0
1169,40.626,1.5880,-0.0160,0
1170,40.658,1.6360,-0.0087,0
1171,40.691,1.6760,0.0042,0
1172,40.723,1.7700,0.0207,0
1173,40.756,1.8080,0.0380,0
1174,40.789,1.8240,0.0587,0
1175,40.824,1.7340,0.0691,0
1176,40.856,1.7800,0.0796,0
1177,40.889,1.8180,0.0941,0
1178,40.921,1.7980,0.1073,0
1179,40.954,1.8520,0.1209,0
1180,40.986,1.6640,0.1184,0
1181,41.019,1.7440,0.1246,0
1182,41.052,1.7480,0.1278,0
1183,41.083,1.6200,0.1207,0
1184,41.115,1.5920,0.1138,0
1185,41.150,1.0000,0.0583,0
1186,41.182,0.6960,-0.0185,0
1187,41.215,1.6940,-0.0114,0
1188,41.247,1.7160,-0.0000,0
1189,41.280,1.6880,0.0158,0
1190,41.313,1.7240,0.0258,0
1191,41.346,1.8280,0.0404,0
1192,41.379,1.8640,0.0652,0
1193,41.412,1.6580,0.0697,0
1194,41.444,1.4600,0.0509,0
1195,41.479,1.4240,0.0346,0
1196,41.512,1.4260,0.0225,0
1197,41.545,1.4040,0.0046,0
1198,41.578,1.4300,-0.0090,0
1199,41.611,1.4780,-0.0135,0
1200,41.644,1.5240,-0.0165,0
1201,41.677,1.5080,-0.0223,0
1202,41.710,1.5240,-0.0226,0
1203,41.743,1.5540,-0.0211,0
1204,41.776,1.5400,-0.0236,0
1205,41.811,1.2880,-0.0434,0
1206,41.844,1.3680,-0.0547,0
1207,41.877,1.5120,-0.0577,0
1208,41.910,1.5320,-0.0557,0
1209,41.943,1.5580,-0.0487,0
1210,41.977,1.2920,-0.0677,0
1211,42.010,0.3820,-0.1577,0
1212,42.043,1.7300,-0.1328,0
1213,42.076,1.7880,-0.1085,0
1214,42.110,1.8140,-0.0719,0
1215,42.144,1.7220,-0.0497,0
1216,42.178,1.8660,-0.0269,0
1217,42.211,1.8960,0.0046,0
1218,42.244,1.6380,0.0172,0
1219,42.277,1.4780,0.0055,0
1220,42.312,1.4100,-0.0106,0
1221,42.345,1.4100,-0.0172,0
1222,42.378,1.4600,-0.0245,0
1223,42.410,1.4760,-0.0339,0
1224,42.443,1.4860,-0.0342,0
1225,42.478,1.4280,-0.0395,0
1226,42.511,1.4480,-0.0493,0
1227,42.544,1.4580,-0.0534,0
1228,42.577,1.4620,-0.0530,0
1229,42.610,1.5420,-0.0520,0
1230,42.642,1.3020,-0.0699,0
1231,42.676,1.4640,-0.0682,0
1232,42.709,1.5560,-0.0639,0
1233,42.742,1.5540,-0.0605,0
1234,42.775,1.6260,-0.0466,0
1235,42.810,0.8620,-0.0969,0
1236,42.843,0.7380,-0.1568,0
1237,42.876,1.6640,-0.1394,0
1238,42.909,1.6840,-0.1156,0
1239,42.942,1.7480,-0.0840,0
1240,42.976,1.7340,-0.0643,0
1241,43.009,1.8660,-0.0350,0
1242,43.042,1.8840,0.0001,0
1243,43.075,1.7220,0.0155,0
1244,43.108,1.5300,0.0099,0
1245,43.143,1.4280,0.0010,0
1246,43.177,1.3920,-0.0103,0
1247,43.210,1.4160,-0.0232,0
1248,43.243,1.4760,-0.0274,0
1249,43.276,1.5140,-0.0254,0
1250,43.309,1.5300,-0.0259,0
1251,43.342,1.5240,-0.0269,0
1252,43.375,1.5000,-0.0263,0
1253,43.408,1.5020,-0.0276,0
1254,43.442,1.2360,-0.0518,0
1255,43.479,1.2920,-0.0671,0
1256,43.511,1.3940,-0.0743,0
1257,43.544,1.3960,-0.0812,0
1258,43.577,1.4640,-0.0797,0
1259,43.610,0.6720,-0.1416,0
1260,43.642,0.8420,-0.1876,0
1261,43.675,1.6600,-0.1678,0
1262,43.708,1.7280,-0.1362,0
1263,43.742,1.7320,-0.1023,0
1264,43.775,1.7700,-0.0779,0
1265,43.810,1.7920,-0.0522,0
1266,43.843,1.7880,-0.0212,0
1267,43.876,1.5060,-0.0211,0
1268,43.909,1.4000,-0.0339,0
1269,43.942,1.4080,-0.0394,0
1270,43.975,1.4080,-0.0444,0
1271,44.008,1.4500,-0.0504,0
1272,44.041,1.4740,-0.0510,0
1273,44.074,1.5320,-0.0439,0
1274,44.108,1.5480,-0.0403,0
1275,44.142,1.4760,-0.0424,0
1276,44.175,1.4760,-0.0408,0
1277,44.208,1.4760,-0.0421,0
1278,44.241,1.4040,-0.0505,0
1279,44.274,1.5540,-0.0429,0
1280,44.307,1.6040,-0.0328,0
1281,44.341,1.6340,-0.0224,0
1282,44.374,1.5040,-0.0214,0
1283,44.407,0.2740,-0.1178,0
1284,44.440,1.4300,-0.1197,0
1285,44.475,1.7100,-0.1025,0
1286,44.508,1.7400,-0.0677,0
1287,44.541,1.7620,-0.0387,0
1288,44.574,1.8800,-0.0151,0
1289,44.607,1.9880,0.0267,0
1290,44.641,1.8740,0.0609,0
1291,44.674,1.6200,0.0589,0
1292,44.707,1.5620,0.0538,0
1293,44.740,1.5460,0.0568,0
1294,44.773,1.6220,0.0584,0
1295,44.808,1.4980,0.0463,0
1296,44.841,1.5020,0.0443,0
1297,44.874,1.5140,0.0407,0
1298,44.907,1.5580,0.0346,0
1299,44.940,1.5740,0.0366,0
1300,44.973,1.6260,0.0448,0
1301,45.006,1.6160,0.0447,0
1302,45.039,1.5140,0.0387,0
1303,45.072,1.6840,0.0512,0
1304,45.104,1.7640,0.0638,0
1305,45.139,1.6300,0.0650,0
1306,45.172,1.6880,0.0753,0
1307,45.204,0.7180,0.0038,0
1308,45.237,1.4480,-0.0072,0
1309,45.270,2.0420,0.0298,0
1310,45.303,2.0840,0.0773,0
1311,45.337,2.0800,0.1187,0
1312,45.370,2.1700,0.1552,0
1313,45.402,2.3040,0.2053,0
1314,45.435,2.2400,0.2504,0
1315,45.470,1.9220,0.2585,0
1316,45.503,1.8140,0.2560,0
1317,45.536,1.8400,0.2604,0
1318,45.568,1.8660,0.2636,0
1319,45.601,1.8520,0.2627,0
1320,45.634,1.8320,0.2641,0
1321,45.667,1.7960,0.2621,0
1322,45.699,1.8200,0.2582,0
1323,45.732,1.7000,0.2472,0
1324,45.764,1.6540,0.2352,0
1325,45.798,1.7700,0.2292,0
1326,45.830,1.6440,0.2141,0
1327,45.862,1.3140,0.1781,0
1328,45.894,1.3920,0.1466,0
1329,45.926,1.4700,0.1208,0
1330,45.959,1.5000,0.1065,0
1331,45.992,1.5380,0.0959,0
1332,46.024,0.9560,0.0344,0
1333,46.057,0.7840,-0.0326,0
1334,46.090,1.7940,-0.0150,0
1335,46.126,1.6900,-0.0076,0
1336,46.159,1.6960,0.0087,0
1337,46.191,1.7500,0.0220,0
1338,46.224,1.8840,0.0402,0
1339,46.257,1.8980,0.0664,0
1340,46.290,1.7060,0.0752,0
1341,46.323,1.5700,0.0641,0
1342,46.356,1.5580,0.0559,0
1343,46.389,1.5540,0.0527,0
1344,46.422,1.5820,0.0466,0
1345,46.457,1.4920,0.0329,0
1346,46.490,1.4980,0.0263,0
1347,46.523,1.5240,0.0193,0
1348,46.556,1.5300,0.0103,0
1349,46.589,1.5820,0.0110,0
1350,46.622,1.5660,0.0105,0
1351,46.655,1.6080,0.0094,0
1352,46.688,1.4280,-0.0037,0
1353,46.722,1.5420,-0.0044,0
1354,46.755,1.6340,-0.0021,0
1355,46.789,1.5480,-0.0052,0
1356,46.823,1.6360,0.0025,0
1357,46.855,0.8540,-0.0565,0
1358,46.888,1.1020,-0.0925,0
1359,46.921,1.8340,-0.0680,0
1360,46.955,1.8500,-0.0383,0
1361,46.988,1.9020,-0.0044,0
1362,47.021,1.9700,0.0252,0
1363,47.054,2.0580,0.0610,0
1364,47.086,2.1480,0.1064,0
1365,47.121,1.7260,0.1101,0
1366,47.155,1.6100,0.1011,0
1367,47.187,1.6440,0.0976,0
1368,47.220,1.6540,0.0958,0
1369,47.256,1.5380,0.0829,0
1370,47.289,1.5240,0.0704,0
1371,47.322,1.5620,0.0625,0
1372,47.355,1.5560,0.0542,0
1373,47.388,1.5760,0.0482,0
1374,47.421,1.6020,0.0453,0
1375,47.457,1.3920,0.0259,0
1376,47.490,1.3560,0.0046,0
1377,47.523,1.3600,-0.0156,0
1378,47.555,1.5500,-0.0180,0
1379,47.588,1.5980,-0.0153,0
1380,47.621,1.6040,-0.0124,0
1381,47.654,1.5740,-0.0125,0
1382,47.687,0.4960,-0.0979,0
1383,47.720,1.4640,-0.1014,0
1384,47.754,1.8860,-0.0757,0
1385,47.788,1.8040,-0.0452,0
1386,47.822,1.8380,-0.0154,0
1387,47.854,1.9460,0.0079,0
1388,47.887,2.0640,0.0469,0
1389,47.921,1.9560,0.0812,0
1390,47.953,1.7320,0.0834,0
1391,47.986,1.6840,0.0801,0
1392,48.020,1.7180,0.0888,0
1393,48.052,1.7340,0.0936,0
1394,48.085,1.8100,0.0986,0
1395,48.120,1.6720,0.0994,0
1396,48.152,1.7280,0.1054,0
1397,48.185,1.8100,0.1091,0
1398,48.217,1.8400,0.1195,0
1399,48.251,1.8120,0.1319,0
1400,48.283,1.8540,0.1392,0
1401,48.316,1.8540,0.1452,0
1402,48.348,1.8040,0.1537,0
1403,48.381,1.7280,0.1515,0
1404,48.414,1.8360,0.1532,0
1405,48.448,1.8520,0.1617,0
1406,48.481,1.8140,0.1681,0
1407,48.513,1.5780,0.1488,0
1408,48.545,0.2920,0.0305,0
1409,48.577,1.3520,0.0066,0
1410,48.609,1.6440,-0.0004,0
1411,48.641,1.7100,0.0122,0
1412,48.673,1.7340,0.0276,0
1413,48.706,1.7520,0.0299,0
1414,48.738,1.9180,0.0513,0
1415,48.773,1.7860,0.0690,0
1416,48.806,1.5100,0.0535,0
1417,48.838,1.4620,0.0317,0
1418,48.871,1.5120,0.0245,0
1419,48.904,1.5720,0.0208,0
1420,48.936,1.6320,0.0159,0
1421,48.970,1.6280,0.0172,0
1422,49.002,1.6620,0.0235,0
1423,49.036,1.6760,0.0235,0
1424,49.069,1.6620,0.0244,0
1425,49.104,1.5540,0.0217,0
1426,49.136,1.6020,0.0179,0
1427,49.169,1.6860,0.0188,0
1428,49.202,1.7000,0.0273,0
1429,49.236,1.5260,0.0201,0
1430,49.269,1.6560,0.0182,0
1431,49.302,1.7240,0.0251,0
1432,49.335,1.7520,0.0379,0
1433,49.369,1.8440,0.0520,0
1434,49.402,1.0560,0.0017,0
1435,49.436,1.0060,-0.0444,0
1436,49.469,1.8640,-0.0263,0
1437,49.502,1.9640,0.0013,0
1438,49.535,2.0060,0.0418,0
1439,49.567,2.0840,0.0758,0
1440,49.600,2.1900,0.1100,0
1441,49.633,2.2600,0.1587,0
1442,49.665,2.0220,0.1825,0
1443,49.698,1.8180,0.1779,0
1444,49.730,1.7820,0.1756,0
1445,49.765,1.8260,0.1814,0
1446,49.797,1.8220,0.1790,0
1447,49.829,1.7420,0.1708,0
1448,49.862,1.6580,0.1625,0
1449,49.899,1.8460,0.1649,0
1450,49.930,1.7880,0.1597,0
1451,49.963,1.7700,0.1605,0
1452,49.995,1.6880,0.1525,0
1453,50.028,1.6520,0.1366,0
1454,50.060,1.5980,0.1223,0
1455,50.094,1.4640,0.1006,0
1456,50.126,1.4520,0.0737,0
1457,50.158,1.4320,0.0483,0
1458,50.189,1.4780,0.0336,0
1459,50.221,1.5640,0.0235,0
1460,50.255,1.0640,-0.0271,0
1461,50.288,0.5320,-0.1116,0
1462,50.321,1.6960,-0.1020,0
1463,50.354,1.8340,-0.0835,0
1464,50.386,1.8740,-0.0482,0
1465,50.421,1.7560,-0.0320,0
1466,50.454,1.8960,-0.0160,0
1467,50.487,2.0240,0.0200,0
1468,50.519,1.8920,0.0460,0
1469,50.552,1.7520,0.0469,0
1470,50.585,1.7740,0.0516,0
1471,50.618,1.7820,0.0646,0
1472,50.651,1.7640,0.0685,0
1473,50.684,1.7240,0.0652,0
1474,50.717,1.7580,0.0727,0
1475,50.752,1.6300,0.0676,0
1476,50.786,1.6520,0.0587,0
1477,50.819,1.6640,0.0555,0
1478,50.851,1.6140,0.0519,0
1479,50.884,1.6860,0.0486,0
1480,50.917,1.5440,0.0344,0
1481,50.950,1.6600,0.0360,0
1482,50.983,1.7560,0.0409,0
1483,51.015,1.8100,0.0484,0
1484,51.047,1.8720,0.0653,0
1485,51.083,1.0420,0.0136,0
1486,51.115,1.4400,-0.0075,0
1487,51.148,2.0260,0.0188,0
1488,51.181,2.0460,0.0542,0
1489,51.213,2.0160,0.0837,0
1490,51.245,1.9960,0.1002,0
1491,51.278,2.0100,0.1215,0
1492,51.311,2.0440,0.1481,0
1493,51.343,1.7160,0.1390,0
1494,51.376,1.5020,0.1131,0
1495,51.410,1.5200,0.0947,0
1496,51.441,1.4480,0.0688,0
1497,51.473,1.4060,0.0403,0
1498,51.505,1.4240,0.0190,0
1499,51.537,1.5180,0.0062,0
1500,51.569,1.5520,-0.0048,0
1501,51.602,1.6280,-0.0061,0
1502,51.635,1.6980,-0.0010,0
1503,51.668,1.7380,0.0047,0
1504,51.700,1.5860,-0.0010,0
1505,51.735,1.6580,0.0008,0
1506,51.771,1.5100,-0.0122,0
1507,51.804,1.5040,-0.0237,0
1508,51.833,1.8640,-0.0047,0
1509,51.865,1.0800,-0.0499,0
1510,51.897,1.5520,-0.0534,0
1511,51.929,2.0160,-0.0244,0
1512,51.961,1.9900,0.0072,0
1513,51.993,1.8820,0.0309,0
1514,52.025,1.8140,0.0380,0
1515,52.060,1.9860,0.0592,0
1516,52.091,1.9040,0.0794,0
1517,52.123,1.6200,0.0710,0
1518,52.154,1.4500,0.0443,0
1519,52.187,1.5020,0.0285,0
1520,52.219,1.5820,0.0217,0
1521,52.252,1.5620,0.0097,0
1522,52.285,1.6000,0.0037,0
1523,52.318,1.6600,0.0055,0
1524,52.350,1.7100,0.0083,0
1525,52.385,1.6280,0.0044,0
1526,52.418,1.6180,0.0027,0
1527,52.451,1.6780,0.0037,0
1528,52.484,1.5500,-0.0067,0
1529,52.516,1.7360,0.0015,0
1530,52.549,1.7700,0.0104,0
1531,52.582,1.8020,0.0207,0
1532,52.615,1.8680,0.0369,0
1533,52.649,0.9380,-0.0223,0
1534,52.682,1.5260,-0.0326,0
1535,52.716,1.9940,-0.0087,0
1536,52.749,2.0440,0.0277,0
1537,52.782,2.0780,0.0644,0
1538,52.814,2.1480,0.0937,0
1539,52.847,2.2820,0.1362,0
1540,52.879,2.2020,0.1749,0
1541,52.912,1.8920,0.1777,0
1542,52.944,1.6880,0.1613,0
1543,52.977,1.6400,0.1481,0
1544,53.009,1.5740,0.1281,0
1545,53.044,1.6660,0.1130,0
1546,53.076,1.6120,0.0994,0
1547,53.109,1.5500,0.0836,0
1548,53.141,1.4860,0.0585,0
1549,53.173,1.4240,0.0319,0
1550,53.205,1.3740,0.0073,0
1551,53.237,1.4180,-0.0154,0
1552,53.269,1.2860,-0.0478,0
1553,53.301,1.4780,-0.0579,0
1554,53.334,1.6020,-0.0591,0
1555,53.369,1.5000,-0.0691,0
1556,53.402,1.6320,-0.0648,0
1557,53.435,1.0760,-0.1062,0
1558,53.467,0.7060,-0.1753,0
1559,53.500,1.8740,-0.1484,0
1560,53.533,1.9140,-0.1169,0
1561,53.566,2.0140,-0.0708,0
1562,53.599,2.0700,-0.0326,0
1563,53.631,2.1720,0.0076,0
1564,53.665,2.2480,0.0599,0
1565,53.699,1.9060,0.0782,0
1566,53.733,1.7100,0.0715,0
1567,53.766,1.7300,0.0705,0
1568,53.800,1.6340,0.0653,0
1569,53.833,1.7040,0.0608,0
1570,53.866,1.7200,0.0574,0
1571,53.899,1.7820,0.0648,0
1572,53.931,1.7940,0.0699,0
1573,53.964,1.8000,0.0718,0
1574,53.997,1.8260,0.0798,0
1575,54.033,1.7300,0.0799,0
1576,54.066,1.7200,0.0750,0
1577,54.099,1.6520,0.0663,0
1578,54.132,1.8440,0.0763,0
1579,54.164,1.8400,0.0822,0
1580,54.197,1.8460,0.0887,0
1581,54.232,1.6760,0.0831,0
1582,54.265,0.4120,-0.0242,0
1583,54.298,1.7680,-0.0197,0
1584,54.331,2.0320,0.0039,0
1585,54.366,1.9300,0.0338,0
1586,54.399,1.9900,0.0592,0
1587,54.432,2.0980,0.0791,0
1588,54.464,2.2320,0.1214,0
1589,54.497,2.0940,0.1526,0
1590,54.530,1.8500,0.1479,0
1591,54.563,1.7920,0.1419,0
1592,54.597,1.8180,0.1469,0
1593,54.630,1.7960,0.1415,0
1594,54.663,1.8220,0.1357,0
1595,54.698,1.7800,0.1359,0
1596,54.731,1.8100,0.1358,0
1597,54.764,1.8160,0.1292,0
1598,54.797,1.8420,0.1318,0
1599,54.830,1.8280,0.1353,0
1600,54.863,1.8520,0.1331,0
1601,54.896,1.7780,0.1272,0
1602,54.929,1.7140,0.1219,0
1603,54.961,1.8600,0.1229,0
1604,54.994,1.7860,0.1162,0
1605,55.029,1.9080,0.1267,0
1606,55.062,1.6820,0.1153,0
1607,55.094,0.3780,-0.0026,0
1608,55.127,1.7580,-0.0005,0
1609,55.160,1.9600,0.0143,0
1610,55.192,1.9060,0.0364,0
1611,55.225,1.8900,0.0518,0
1612,55.259,1.9880,0.0635,0
1613,55.292,2.0860,0.0910,0
1614,55.324,1.9120,0.1068,0
1615,55.359,1.7480,0.0976,0
1616,55.392,1.6420,0.0809,0
1617,55.425,1.5760,0.0684,0
1618,55.458,1.5660,0.0503,0
1619,55.490,1.4940,0.0238,0
1620,55.522,1.4860,0.0065,0
1621,55.555,1.4300,-0.0148,0
1622,55.587,1.4000,-0.0429,0
1623,55.619,1.4820,-0.0577,0
1624,55.651,1.5400,-0.0634,0
1625,55.686,1.3900,-0.0853,0
1626,55.718,1.4360,-0.1014,0
1627,55.751,1.3840,-0.1169,0
1628,55.783,1.6740,-0.1097,0
1629,55.815,1.7380,-0.0996,0
1630,55.848,1.7720,-0.0826,0
1631,55.881,1.6480,-0.0778,0
1632,55.914,0.4160,-0.1750,0
1633,55.947,1.7500,-0.1585,0
1634,55.980,2.0320,-0.1232,0
1635,56.015,1.9640,-0.0833,0
1636,56.048,2.0120,-0.0468,0
1637,56.081,2.0940,-0.0170,0
1638,56.114,2.2360,0.0312,0
1639,56.147,2.1220,0.0703,0
1640,56.180,1.8840,0.0765,0
1641,56.212,1.8320,0.0788,0
1642,56.246,1.8060,0.0858,0
1643,56.279,1.8420,0.0896,0
1644,56.312,1.8400,0.0895,0
1645,56.347,1.7420,0.0887,0
1646,56.380,1.8080,0.0916,0
1647,56.413,1.8080,0.0881,0
1648,56.446,1.8000,0.0896,0
1649,56.479,1.8340,0.0960,0
1650,56.512,1.8180,0.0942,0
1651,56.545,1.5860,0.0758,0
1652,56.578,1.7860,0.0788,0
1653,56.611,1.8560,0.0818,0
1654,56.645,1.8920,0.0886,0
1655,56.680,1.8940,0.0994,0
1656,56.713,1.1140,0.0439,0
1657,56.746,1.2100,-0.0030,0
1658,56.779,2.0660,0.0217,0
1659,56.812,2.0760,0.0516,0
1660,56.845,2.0980,0.0836,0
1661,56.878,2.1340,0.1079,0
1662,56.911,2.2600,0.1419,0
1663,56.944,2.2540,0.1786,0
1664,56.978,1.9860,0.1861,0
1665,57.013,1.7780,0.1726,0
1666,57.046,1.8100,0.1663,0
1667,57.079,1.7940,0.1590,0
1668,57.120,1.3900,0.1172,0
1669,57.153,1.4000,0.0807,0
1670,57.185,1.4120,0.0474,0
1671,57.218,1.4360,0.0188,0
1672,57.252,1.4080,-0.0083,0
1673,57.286,1.3880,-0.0351,0
1674,57.320,1.4060,-0.0590,0
1675,57.353,1.2200,-0.0946,0
1676,57.389,1.3840,-0.1139,0
1677,57.421,1.4520,-0.1278,0
1678,57.455,1.4480,-0.1383,0
1679,57.490,1.6100,-0.1341,0
1680,57.522,0.8200,-0.1951,0
1681,57.555,0.7400,-0.2568,0
1682,57.588,1.6300,-0.2466,0
1683,57.621,1.6980,-0.2276,0
1684,57.654,1.6860,-0.2026,0
1685,57.694,2.1380,-0.1520,0
1686,57.727,2.2460,-0.0991,0
1687,57.761,2.2080,-0.0417,0
1688,57.794,1.9320,-0.0159,0
1689,57.827,1.8140,-0.0110,0
1690,57.860,1.8300,0.0020,0
1691,57.893,1.8180,0.0161,0
1692,57.927,1.8340,0.0218,0
1693,57.960,1.8460,0.0300,0
1694,57.993,1.7900,0.0394,0
1695,58.028,1.8380,0.0462,0
1696,58.062,1.8380,0.0494,0
1697,58.095,1.8440,0.0600,0
1698,58.127,1.8460,0.0681,0
1699,58.160,1.8700,0.0718,0
1700,58.194,1.6920,0.0658,0
1701,58.227,1.7880,0.0698,0
1702,58.262,1.8540,0.0721,0
1703,58.295,1.8800,0.0792,0
1704,58.328,1.9040,0.0922,0
1705,58.362,0.9300,0.0216,0
1706,58.396,1.4020,-0.0087,0
1707,58.429,2.0500,0.0153,0
1708,58.462,2.0800,0.0477,0
1709,58.495,2.1320,0.0813,0
1710,58.528,2.1760,0.1083,0
1711,58.561,2.2760,0.1454,0
1712,58.594,2.2440,0.1806,0
1713,58.627,1.9360,0.1823,0
1714,58.661,1.8360,0.1745,0
1715,58.696,1.7900,0.1670,0
1716,58.729,1.8260,0.1612,0
1717,58.762,1.8320,0.1539,0
1718,58.795,1.8380,0.1508,0
1719,58.828,1.8360,0.1481,0
1720,58.862,1.8400,0.1427,0
1721,58.895,1.8580,0.1406,0
1722,58.928,1.8400,0.1391,0
1723,58.961,1.8280,0.1343,0
1724,58.995,1.8360,0.1299,0
1725,59.031,1.6200,0.1111,0
1726,59.064,1.5820,0.0895,0
1727,59.097,1.8020,0.0840,0
1728,59.129,1.8400,0.0853,0
1729,59.162,1.8200,0.0875,0
1730,59.195,1.7160,0.0768,0
1731,59.228,0.4400,-0.0342,0
1732,59.262,1.7880,-0.0285,0
1733,59.295,2.0900,-0.0057,0
1734,59.328,2.0980,0.0305,0
1735,59.363,2.0200,0.0567,0
1736,59.396,2.1120,0.0746,0
1737,59.429,2.2120,0.1067,0
1738,59.462,2.1200,0.1367,0
1739,59.494,1.8820,0.1338,0
1740,59.527,1.8100,0.1232,0
1741,59.560,1.7920,0.1216,0
1742,59.593,1.8120,0.1172,0
1743,59.626,1.8020,0.1063,0
1744,59.660,1.8520,0.1078,0
1745,59.695,1.8060,0.1065,0
1746,59.728,1.8240,0.0995,0
1747,59.761,1.8140,0.0951,0
1748,59.794,1.8460,0.0985,0
1749,59.827,1.8460,0.0960,0
1750,59.860,1.8240,0.0910,0
1751,59.893,1.6620,0.0790,0
1752,59.926,1.7720,0.0738,0
1753,59.959,1.8380,0.0700,0
1754,59.992,1.8380,0.0726,0
1755,60.027,1.8480,0.0764,0
1756,60.061,0.9580,0.0034,0
1757,60.093,1.4820,-0.0208,0
1758,60.126,2.0020,-0.0024,0
1759,60.159,2.0180,0.0207,0
1760,60.192,2.0420,0.0454,0
1761,60.225,2.1060,0.0675,0
1762,60.259,2.2000,0.0970,0
1763,60.292,2.1900,0.1274,0
1764,60.325,1.8880,0.1274,0
1765,60.360,1.8140,0.1188,0
1766,60.394,1.7860,0.1110,0
1767,60.427,1.8320,0.1078,0
1768,60.460,1.7820,0.0984,0
1769,60.493,1.8180,0.0940,0
1770,60.526,1.8460,0.0932,0
1771,60.560,1.8120,0.0882,0
1772,60.593,1.8240,0.0845,0
1773,60.626,1.8220,0.0821,0
1774,60.659,1.8040,0.0778,0
1775,60.694,1.8060,0.0733,0
1776,60.728,1.7340,0.0642,0
1777,60.761,1.8240,0.0630,0
1778,60.794,1.8460,0.0626,0
1779,60.826,1.8980,0.0676,0
1780,60.860,1.8060,0.0653,0
1781,60.893,0.7080,-0.0252,0
1782,60.926,1.6160,-0.0387,0
1783,60.959,2.0320,-0.0212,0
1784,60.992,2.0980,0.0126,0
1785,61.028,2.0780,0.0407,0
1786,61.061,2.1360,0.0605,0
1787,61.094,2.2340,0.0933,0
1788,61.127,2.1460,0.1220,0
1789,61.160,1.8780,0.1175,0
1790,61.193,1.8740,0.1119,0
1791,61.232,1.4840,0.0828,0
1792,61.263,1.6980,0.0691,0
1793,61.297,1.6460,0.0460,0
1794,61.330,1.6760,0.0363,0
1795,61.365,1.4900,0.0129,0
1796,61.399,1.5300,-0.0137,0
1797,61.432,1.5260,-0.0348,0
1798,61.465,1.5180,-0.0487,0
1799,61.497,1.5660,-0.0642,0
1800,61.530,1.5300,-0.0824,0
1801,61.563,1.5740,-0.0884,0
1802,61.597,1.7400,-0.0838,0
1803,61.630,1.7560,-0.0820,0
1804,61.663,1.7600,-0.0737,0
1805,61.699,1.3880,-0.0956,0
1806,61.732,0.3300,-0.2058,0
1807,61.765,1.5840,-0.2083,0
1808,61.798,1.7760,-0.1935,0
1809,61.831,1.8080,-0.1667,0
1810,61.864,1.9080,-0.1404,0
1811,61.897,2.0080,-0.1139,0
1812,61.930,2.1160,-0.0714,0
1813,61.963,2.0260,-0.0395,0
1814,61.996,1.7780,-0.0383,0
1815,62.032,1.5060,-0.0554,0
1816,62.065,1.5520,-0.0644,0
1817,62.098,1.6060,-0.0749,0
1818,62.131,1.6080,-0.0826,0
1819,62.164,1.6640,-0.0795,0
1820,62.197,1.7220,-0.0768,0
1821,62.237,1.5620,-0.0885,0
1822,62.268,1.4400,-0.1036,0
1823,62.300,1.4840,-0.1169,0
1824,62.333,1.4060,-0.1387,0
1825,62.367,1.3520,-0.1577,0
1826,62.400,1.4820,-0.1649,0
1827,62.432,1.5160,-0.1732,0
1828,62.465,1.5500,-0.1738,0
1829,62.498,1.3400,-0.1889,0
1830,62.530,0.4540,-0.2777,0
1831,62.563,1.7540,-0.2581,0
1832,62.596,1.9000,-0.2259,0
1833,62.629,1.8600,-0.1883,0
1834,62.662,1.9280,-0.1564,0
1835,62.697,1.8860,-0.1362,0
1836,62.730,1.9960,-0.0981,0
1837,62.763,1.9100,-0.0715,0
1838,62.797,1.6980,-0.0724,0
1839,62.830,1.6880,-0.0690,0
1840,62.863,1.7240,-0.0600,0
1841,62.896,1.6820,-0.0612,0
1842,62.929,1.7140,-0.0587,0
1843,62.962,1.7900,-0.0457,0
1844,62.994,1.8340,-0.0335,0
1845,63.030,1.6480,-0.0388,0
1846,63.063,1.7120,-0.0347,0
1847,63.097,1.5060,-0.0493,0
1848,63.130,1.7240,-0.0476,0
1849,63.162,1.7060,-0.0453,0
1850,63.196,1.8060,-0.0328,0
1851,63.231,1.6720,-0.0352,0
1852,63.264,0.7540,-0.1099,0
1853,63.297,1.2300,-0.1407,0
1854,63.331,1.6220,-0.1433,0
1855,63.366,1.5960,-0.1392,0
1856,63.399,1.6060,-0.1313,0
1857,63.432,1.6860,-0.1274,0
1858,63.464,1.8760,-0.1056,0
1859,63.497,1.8720,-0.0780,0
1860,63.529,1.6440,-0.0769,0
1861,63.562,1.5200,-0.0899,0
1862,63.595,1.5680,-0.0920,0
1863,63.628,1.6180,-0.0902,0
1864,63.661,1.5540,-0.0983,0
1865,63.696,1.6260,-0.0965,0
1866,63.729,1.5000,-0.1029,0
1867,63.763,1.6780,-0.0984,0
1868,63.795,1.7500,-0.0884,0
1869,63.829,1.5320,-0.0916,0
1870,63.862,1.8300,-0.0737,0
1871,63.894,2.0300,-0.0453,0
1872,63.927,2.2060,0.0022,0
1873,63.960,2.3580,0.0583,0
1874,63.993,1.4380,0.0309,0
1875,64.029,1.2820,-0.0050,0
1876,64.062,1.8440,0.0036,0
1877,64.095,1.7780,0.0070,0
1878,64.129,1.7360,0.0133,0
1879,64.162,1.8180,0.0204,0
1880,64.195,2.0340,0.0409,0
1881,64.231,1.9240,0.0584,0
1882,64.263,1.6740,0.0543,0
1883,64.296,1.5000,0.0285,0
1884,64.329,1.5280,0.0099,0
1885,64.364,1.3800,-0.0143,0
1886,64.397,1.4240,-0.0380,0
1887,64.430,1.4100,-0.0628,0
1888,64.462,1.4840,-0.0731,0
1889,64.495,1.5740,-0.0772,0
1890,64.528,1.7180,-0.0732,0
1891,64.561,1.5540,-0.0776,0
1892,64.594,1.7120,-0.0678,0
1893,64.627,1.7860,-0.0589,0
1894,64.660,1.8060,-0.0455,0
1895,64.697,1.6640,-0.0406,0
1896,64.730,0.8220,-0.1086,0
1897,64.763,1.1540,-0.1474,0
1898,64.795,1.9080,-0.1214,0
1899,64.828,1.9660,-0.0867,0
1900,64.861,2.0340,-0.0487,0
1901,64.893,2.1600,-0.0097,0
1902,64.927,2.3160,0.0415,0
1903,64.960,2.2840,0.0900,0
1904,64.993,1.9380,0.1022,0
1905,65.028,1.6480,0.0878,0
1906,65.062,1.6420,0.0763,0
1907,65.095,1.6680,0.0666,0
1908,65.128,1.7300,0.0613,0
1909,65.161,1.7760,0.0624,0
1910,65.194,1.7380,0.0607,0
1911,65.229,1.6340,0.0488,0
1912,65.262,1.6740,0.0415,0
1913,65.295,1.6120,0.0307,0
1914,65.329,1.4600,0.0083,0
1915,65.368,1.3980,-0.0184,0
1916,65.410,1.7960,-0.0112,0
1917,65.448,1.4920,-0.0270,0
1918,65.482,0.6280,-0.1085,0
1919,65.512,0.9000,-0.1678,0
1920,65.546,1.7680,-0.1562,0
1921,65.580,1.7600,-0.1339,0
1922,65.615,1.6800,-0.1174,0
1923,65.650,1.7300,-0.1111,0
1924,65.685,1.8840,-0.0882,0
1925,65.720,1.9580,-0.0520,0
1926,65.754,1.7560,-0.0435,0
1927,65.788,1.6720,-0.0458,0
1928,65.822,1.6960,-0.0381,0
1929,65.855,1.6840,-0.0341,0
1930,65.888,1.6800,-0.0364,0
1931,65.921,1.6740,-0.0339,0
1932,65.954,1.6820,-0.0288,0
1933,65.988,1.6920,-0.0292,0
1934,66.021,1.6920,-0.0280,0
1935,66.057,1.8440,-0.0103,0
1936,66.090,1.8160,-0.0002,0
1937,66.123,1.7500,0.0031,0
1938,66.156,1.8720,0.0192,0
1939,66.189,1.8440,0.0300,0
1940,66.229,1.7180,0.0286,0
1941,66.265,1.0660,-0.0227,0
1942,66.301,0.8340,-0.0902,0
1943,66.339,2.0620,-0.0600,0
1944,66.375,2.1100,-0.0219,0
1945,66.411,1.9840,0.0136,0
1946,66.451,1.8660,0.0242,0
1947,66.491,2.3440,0.0680,0
1948,66.522,2.0640,0.0992,0
1949,66.556,1.8400,0.1082,0
1950,66.591,1.8340,0.1018,0
1951,66.621,1.6520,0.0895,0
1952,66.654,1.6900,0.0887,0
1953,66.688,1.6840,0.0745,0
1954,66.721,1.6760,0.0620,0
1955,66.757,1.8200,0.0728,0
1956,66.790,1.8380,0.0770,0
1957,66.823,1.8280,0.0754,0
1958,66.857,1.8660,0.0861,0
1959,66.891,1.6380,0.0765,0
1960,66.925,1.7940,0.0721,0
1961,66.959,1.8400,0.0761,0
1962,66.992,1.8440,0.0858,0
1963,67.026,1.8120,0.0851,0
1964,67.059,0.9440,0.0144,0
1965,67.095,1.5160,-0.0000,0
1966,67.128,1.8800,0.0087,0
1967,67.161,1.9400,0.0266,0
1968,67.194,1.9800,0.0522,0
1969,67.228,1.9840,0.0681,0
1970,67.261,2.1000,0.0909,0
1971,67.294,2.0680,0.1169,0
1972,67.327,1.7400,0.1113,0
1973,67.360,1.6640,0.0940,0
