sample_index,timestamp_seconds,raw_voltage,filtered_voltage,lead_off
0,2.230,1.4060,0.1378,0
1,2.719,1.9240,0.3141,0
2,2.826,1.7120,0.4606,0
3,2.863,1.4660,0.5580,0
4,2.898,1.4800,0.6341,0
5,3.369,0.3300,0.5971,0
6,3.487,2.0040,0.7272,0
7,3.963,1.4360,0.7702,0
8,3.989,1.8240,0.8675,0
9,4.068,1.4760,0.9130,0
10,4.110,1.4980,0.9381,0
11,4.137,1.9240,1.0099,0
12,4.207,1.9200,1.0804,0
13,4.234,0.7880,1.0191,0
14,4.262,0.8540,0.9634,0
15,4.291,1.8100,1.0084,0
16,4.319,2.0380,1.0760,0
17,4.347,1.6500,1.0987,0
18,4.374,1.8880,1.1321,0
19,4.401,1.8940,1.1585,0
20,4.429,1.6100,1.1618,0
21,4.456,2.0220,1.1972,0
22,4.484,1.8620,1.2030,0
23,4.511,1.4820,1.1812,0
24,4.539,1.8160,1.1888,0
25,4.568,1.8480,1.1843,0
26,4.596,1.4520,1.1526,0
27,4.624,1.7740,1.1560,0
28,4.651,1.7800,1.1410,0
29,4.679,1.4020,1.0993,0
30,4.706,1.7940,1.1058,0
31,4.733,1.6340,1.0774,0
32,4.761,1.4980,1.0432,0
33,4.788,1.8840,1.0579,0
34,4.816,1.6240,1.0320,0
35,4.844,1.4540,0.9917,0
36,4.872,1.8740,1.0018,0
37,4.900,1.7100,0.9873,0
38,4.924,1.7880,0.9810,0
39,4.951,1.5380,0.9520,0
40,4.978,1.3000,0.8986,0
41,5.006,1.8380,0.8982,0
42,5.033,1.7260,0.8892,0
43,5.060,1.5140,0.8649,0
44,5.088,1.8940,0.8699,0
45,5.117,0.4920,0.7341,0
46,5.145,1.3880,0.7088,0
47,5.172,1.9840,0.7291,0
48,5.200,1.8740,0.7461,0
49,5.230,1.6140,0.7459,0
50,5.258,1.7960,0.7430,0
51,5.286,1.9440,0.7522,0
52,5.314,1.5580,0.7410,0
53,5.341,1.7120,0.7345,0
54,5.369,1.8280,0.7233,0
55,5.400,1.6640,0.7160,0
56,5.428,1.4760,0.6924,0
57,5.456,1.8940,0.6892,0
58,5.483,1.7040,0.6764,0
59,5.511,1.4120,0.6525,0
60,5.539,1.8560,0.6517,0
61,5.566,1.7180,0.6319,0
62,5.594,1.5060,0.6185,0
63,5.621,1.9060,0.6312,0
64,5.648,1.6140,0.5961,0
65,5.677,1.5100,0.5785,0
66,5.705,1.8380,0.5911,0
67,5.733,1.7400,0.5708,0
68,5.761,1.3820,0.5342,0
69,5.788,1.6640,0.5348,0
70,5.814,1.4800,0.4941,0
71,5.842,1.5880,0.4772,0
72,5.870,1.9600,0.5108,0
73,5.897,1.5500,0.4853,0
74,5.924,1.5000,0.4557,0
75,5.953,0.4800,0.3380,0
76,5.981,1.4200,0.3177,0
77,6.007,1.8880,0.3345,0
78,6.035,2.0060,0.3838,0
79,6.062,1.5960,0.3869,0
80,6.089,1.9460,0.4014,0
81,6.115,1.7380,0.4024,0
82,6.143,1.6640,0.4121,0
83,6.170,2.0360,0.4356,0
84,6.198,1.6960,0.4196,0
85,6.229,1.4500,0.4032,0
86,6.256,1.7280,0.4002,0
87,6.283,1.7380,0.3845,0
88,6.310,1.4120,0.3619,0
89,6.338,1.8600,0.3821,0
90,6.365,1.6360,0.3556,0
91,6.393,1.4260,0.3300,0
92,6.420,1.7900,0.3479,0
93,6.446,1.4420,0.3077,0
94,6.473,1.6040,0.2973,0
95,6.503,1.8600,0.3233,0
96,6.531,1.5400,0.3013,0
97,6.558,1.5640,0.2832,0
98,6.586,1.8480,0.3033,0
99,6.613,1.4360,0.2765,0
100,6.640,1.3860,0.2429,0
101,6.668,1.7540,0.2507,0
102,6.696,1.4660,0.2324,0
103,6.722,1.8120,0.2486,0
104,6.749,1.7160,0.2488,0
105,6.778,1.3500,0.2190,0
106,6.806,0.3100,0.0884,0
107,6.834,1.5540,0.0836,0
108,6.861,1.6500,0.0909,0
109,6.888,2.0200,0.1545,0
110,6.915,1.8940,0.1856,0
111,6.943,1.6540,0.1805,0
112,6.971,2.0600,0.2297,0
113,6.998,1.8280,0.2482,0
114,7.026,1.6980,0.2426,0
115,7.059,1.5940,0.2310,0
116,7.088,1.8560,0.2499,0
117,7.114,1.6640,0.2411,0
118,7.142,1.5640,0.2251,0
119,7.170,1.9180,0.2474,0
120,7.198,1.7040,0.2426,0
121,7.227,1.4600,0.2165,0
122,7.254,1.8560,0.2303,0
123,7.282,1.6840,0.2227,0
124,7.310,1.4540,0.1991,0
125,7.340,1.6620,0.1946,0
126,7.369,1.9040,0.2090,0
127,7.397,1.5420,0.1948,0
128,7.425,1.5360,0.1816,0
129,7.453,1.8840,0.1920,0
130,7.480,1.6020,0.1807,0
131,7.509,1.5440,0.1734,0
132,7.536,1.6800,0.1651,0
133,7.565,1.5560,0.1460,0
134,7.593,1.5160,0.1388,0
135,7.624,1.6580,0.1360,0
136,7.653,1.9520,0.1556,0
137,7.680,1.4280,0.1364,0
138,7.709,0.0360,-0.0191,0
139,7.737,1.5320,-0.0314,0
140,7.765,1.9100,0.0005,0
141,7.793,1.5940,0.0295,0
142,7.820,1.9820,0.0719,0
143,7.847,1.7400,0.0673,0
144,7.875,1.6140,0.0835,0
145,7.906,1.9020,0.1203,0
146,7.935,2.0620,0.1415,0
147,7.963,1.6300,0.1415,0
148,7.992,1.4740,0.1362,0
149,8.020,1.8860,0.1395,0
150,8.047,1.6180,0.1252,0
151,8.075,1.4380,0.1213,0
152,8.104,1.8120,0.1271,0
153,8.132,1.7440,0.1166,0
154,8.161,1.4500,0.1114,0
155,8.191,1.5860,0.1067,0
156,8.221,1.8340,0.1022,0
157,8.248,1.7240,0.1155,0
158,8.277,1.4080,0.1036,0
159,8.305,1.6940,0.0890,0
160,8.334,1.8240,0.0984,0
161,8.362,1.4980,0.1008,0
162,8.391,1.5120,0.0801,0
163,8.419,1.8920,0.0863,0
164,8.446,1.5460,0.0881,0
165,8.477,1.2240,0.0540,0
166,8.505,1.5740,0.0288,0
167,8.533,1.8760,0.0547,0
168,8.562,1.5240,0.0629,0
169,8.591,1.5380,0.0446,0
170,8.619,1.8660,0.0550,0
171,8.646,0.2760,-0.0633,0
172,8.675,1.0960,-0.1006,0
173,8.704,1.9920,-0.0759,0
174,8.733,2.0280,-0.0100,0
175,8.764,1.8080,0.0391,0
176,8.793,1.5560,0.0133,0
177,8.821,1.9540,0.0415,0
178,8.848,1.9060,0.0933,0
179,8.877,1.5900,0.0821,0
180,8.906,1.6700,0.0650,0
181,8.935,1.8860,0.1001,0
182,8.964,1.6660,0.1071,0
183,8.992,1.4640,0.0696,0
184,9.021,1.7800,0.0805,0
185,9.051,1.8780,0.1123,0
186,9.080,1.6160,0.0983,0
187,9.108,1.4880,0.0715,0
188,9.137,1.8460,0.0953,0
189,9.166,1.8220,0.1080,0
190,9.195,1.4760,0.0804,0
191,9.225,1.4780,0.0628,0
192,9.254,1.7740,0.0731,0
193,9.283,1.8540,0.0866,0
194,9.312,1.5040,0.0718,0
195,9.343,1.4120,0.0477,0
196,9.372,1.5920,0.0344,0
197,9.401,1.7320,0.0433,0
198,9.430,1.5400,0.0390,0
199,9.459,1.4580,0.0175,0
200,9.488,1.7240,0.0221,0
201,9.517,1.8700,0.0505,0
202,9.545,1.3720,0.0260,0
203,9.574,0.1100,-0.1282,0
204,9.603,1.7140,-0.1095,0
205,9.638,1.7880,-0.0832,0
206,9.667,1.9660,-0.0257,0
207,9.696,1.6720,-0.0144,0
208,9.725,1.5820,-0.0213,0
209,9.754,1.8660,0.0119,0
210,9.783,1.9640,0.0512,0
211,9.811,1.5480,0.0376,0
212,9.840,1.4880,0.0232,0
213,9.870,1.8140,0.0428,0
214,9.899,1.8540,0.0609,0
215,9.930,1.6740,0.0637,0
216,9.959,1.4500,0.0441,0
217,9.989,1.5140,0.0264,0
218,10.017,1.7020,0.0311,0
219,10.047,1.5460,0.0258,0
220,10.076,1.3140,-0.0055,0
221,10.105,1.5420,-0.0161,0
222,10.134,1.8300,0.0080,0
223,10.163,1.5660,0.0081,0
224,10.192,1.4000,-0.0135,0
225,10.222,1.6360,-0.0136,0
226,10.252,1.9000,0.0187,0
227,10.283,1.8680,0.0470,0
228,10.312,1.6060,0.0411,0
229,10.341,1.5200,0.0265,0
230,10.370,1.7720,0.0407,0
231,10.399,1.9620,0.0710,0
232,10.428,0.5600,-0.0385,0
233,10.457,1.1700,-0.0778,0
234,10.486,1.8440,-0.0574,0
235,10.517,2.0120,-0.0062,0
236,10.548,1.9920,0.0444,0
237,10.578,1.7460,0.0469,0
238,10.607,1.6440,0.0420,0
239,10.638,1.8220,0.0668,0
240,10.666,2.0380,0.0996,0
241,10.697,1.7920,0.1020,0
242,10.725,1.4860,0.0856,0
243,10.755,1.7200,0.0858,0
244,10.784,1.9260,0.0980,0
245,10.815,1.8420,0.1152,0
246,10.845,1.5420,0.1009,0
247,10.873,1.4860,0.0674,0
248,10.903,1.8180,0.0760,0
249,10.932,1.8520,0.0976,0
250,10.963,1.6700,0.0904,0
251,10.993,1.4460,0.0566,0
252,11.023,1.5320,0.0433,0
253,11.053,1.7920,0.0550,0
254,11.082,1.8340,0.0648,0
255,11.116,1.8800,0.0848,0
256,11.147,1.6880,0.0840,0
257,11.176,1.4340,0.0515,0
258,11.212,1.5240,0.0324,0
259,11.243,1.4620,0.0128,0
260,11.273,1.4300,-0.0097,0
261,11.303,0.2280,-0.1499,0
262,11.334,1.5440,-0.1448,0
263,11.364,1.9260,-0.1075,0
264,11.394,1.6800,-0.0814,0
265,11.427,1.6540,-0.0635,0
266,11.457,1.5680,-0.0722,0
267,11.486,1.8480,-0.0409,0
268,11.516,2.0560,0.0152,0
269,11.546,1.8280,0.0306,0
270,11.577,1.5220,0.0151,0
271,11.607,1.5600,0.0120,0
272,11.637,1.7140,0.0166,0
273,11.667,1.8560,0.0336,0
274,11.697,1.7600,0.0486,0
275,11.729,1.6420,0.0465,0
276,11.760,1.4620,0.0193,0
277,11.790,1.5220,0.0073,0
278,11.820,1.7040,0.0162,0
279,11.851,1.9020,0.0381,0
280,11.881,1.8460,0.0557,0
281,11.911,1.6000,0.0513,0
282,11.942,1.4720,0.0275,0
283,11.973,1.5180,0.0086,0
284,12.004,1.6140,0.0083,0
285,12.037,1.6140,0.0067,0
286,12.067,1.8660,0.0254,0
287,12.098,1.8280,0.0427,0
288,12.129,1.6160,0.0408,0
289,12.160,0.0240,-0.1243,0
290,12.190,1.0580,-0.1742,0
291,12.222,1.6820,-0.1587,0
292,12.252,1.9380,-0.1014,0
293,12.282,2.0440,-0.0424,0
294,12.313,1.9280,-0.0141,0
295,12.345,1.8260,0.0108,0
296,12.377,1.6940,0.0238,0
297,12.406,1.5640,0.0098,0
298,12.437,1.6640,0.0094,0
299,12.467,1.8740,0.0389,0
300,12.498,1.8780,0.0593,0
301,12.530,1.8480,0.0715,0
302,12.561,1.6060,0.0652,0
303,12.592,1.4840,0.0451,0
304,12.624,1.4800,0.0194,0
305,12.657,1.4780,0.0020,0
306,12.688,1.5800,0.0001,0
307,12.720,1.6800,0.0016,0
308,12.752,1.8140,0.0180,0
309,12.783,1.9180,0.0489,0
310,12.814,1.8900,0.0694,0
311,12.847,1.8240,0.0785,0
312,12.879,1.6340,0.0721,0
313,12.910,1.4660,0.0483,0
314,12.941,1.4460,0.0198,0
315,12.974,1.4300,-0.0039,0
316,13.006,1.3920,-0.0257,0
317,13.037,0.2500,-0.1614,0
318,13.068,1.5640,-0.1557,0
319,13.100,2.0400,-0.1043,0
320,13.130,1.9900,-0.0460,0
321,13.162,1.8240,-0.0161,0
322,13.193,1.6600,-0.0196,0
323,13.226,1.6040,-0.0172,0
324,13.259,1.5960,-0.0116,0
325,13.293,1.5480,-0.0242,0
326,13.325,1.4540,-0.0410,0
327,13.356,1.5100,-0.0414,0
328,13.388,1.6140,-0.0406,0
329,13.419,1.7600,-0.0273,0
330,13.451,1.8640,0.0054,0
331,13.482,1.8940,0.0342,0
332,13.512,1.7820,0.0418,0
333,13.544,1.6160,0.0387,0
334,13.576,1.5220,0.0274,0
335,13.610,1.5260,0.0095,0
336,13.642,1.4580,-0.0096,0
337,13.674,1.4440,-0.0225,0
338,13.706,1.4840,-0.0368,0
339,13.737,1.5500,-0.0436,0
340,13.769,1.6780,-0.0298,0
341,13.800,1.8360,-0.0045,0
342,13.838,1.4420,-0.0242,0
343,13.870,1.6180,-0.0197,0
344,13.902,0.4120,-0.1368,0
345,13.935,1.6280,-0.1250,0
346,13.967,1.9800,-0.0825,0
347,13.997,2.0160,-0.0232,0
348,14.028,1.8160,0.0049,0
349,14.060,1.7220,0.0065,0
350,14.092,1.6060,0.0068,0
351,14.125,1.5900,0.0107,0
352,14.156,1.4840,-0.0097,0
353,14.188,1.5280,-0.0207,0
354,14.220,1.6240,-0.0112,0
355,14.254,1.6060,-0.0121,0
356,14.286,1.6940,-0.0077,0
357,14.317,1.7920,0.0147,0
358,14.349,1.8900,0.0431,0
359,14.381,1.9440,0.0671,0
360,14.411,1.7220,0.0720,0
361,14.443,1.5940,0.0658,0
362,14.475,1.4840,0.0406,0
363,14.508,1.4360,0.0152,0
364,14.540,1.4640,0.0014,0
365,14.574,1.5040,-0.0122,0
366,14.607,1.3640,-0.0396,0
367,14.639,1.4700,-0.0476,0
368,14.671,1.5500,-0.0495,0
369,14.702,1.6720,-0.0414,0
370,14.734,1.5900,-0.0372,0
371,14.766,0.3780,-0.1522,0
372,14.797,1.6700,-0.1357,0
373,14.828,1.8760,-0.1031,0
374,14.860,1.7100,-0.0678,0
375,14.893,1.6980,-0.0474,0
376,14.925,1.6020,-0.0550,0
377,14.958,1.6020,-0.0438,0
378,14.991,1.5540,-0.0351,0
379,15.023,1.4400,-0.0568,0
380,15.056,1.4520,-0.0678,0
381,15.087,1.5900,-0.0525,0
382,15.118,1.7100,-0.0394,0
383,15.150,1.8080,-0.0195,0
384,15.182,1.8600,0.0165,0
385,15.216,1.8040,0.0372,0
386,15.248,1.8620,0.0526,0
387,15.279,1.7980,0.0694,0
388,15.310,1.6160,0.0686,0
389,15.342,1.4380,0.0391,0
390,15.375,1.4520,0.0166,0
391,15.407,1.4080,-0.0005,0
392,15.446,1.7860,0.0154,0
393,15.479,1.7200,0.0207,0
394,15.511,1.6940,0.0331,0
395,15.545,1.8380,0.0532,0
396,15.577,1.6360,0.0448,0
397,15.609,0.9780,-0.0184,0
398,15.641,0.7560,-0.0993,0
399,15.674,1.5320,-0.1072,0
400,15.706,1.6500,-0.0916,0
401,15.739,1.6200,-0.0675,0
402,15.772,1.6140,-0.0632,0
403,15.805,1.6300,-0.0601,0
404,15.837,1.7080,-0.0334,0
405,15.876,1.6600,-0.0214,0
406,15.908,1.5140,-0.0351,0
407,15.941,1.5200,-0.0352,0
408,15.973,1.4940,-0.0368,0
409,16.006,1.4620,-0.0521,0
410,16.038,1.4740,-0.0591,0
411,16.071,1.5200,-0.0543,0
412,16.104,1.4980,-0.0602,0
413,16.137,1.5100,-0.0648,0
414,16.170,1.5220,-0.0600,0
415,16.206,1.4300,-0.0683,0
416,16.242,1.5500,-0.0686,0
417,16.275,1.5300,-0.0650,0
418,16.307,1.4580,-0.0667,0
419,16.340,1.3540,-0.0849,0
420,16.375,1.5200,-0.0836,0
421,16.407,1.4640,-0.0827,0
422,16.440,1.4260,-0.0879,0
423,16.473,1.3640,-0.1021,0
424,16.506,0.0000,-0.2443,0
425,16.543,1.3160,-0.2439,0
426,16.575,1.6860,-0.2171,0
427,16.608,1.6840,-0.1703,0
428,16.641,1.6120,-0.1363,0
429,16.673,1.5980,-0.1280,0
430,16.706,1.6040,-0.1080,0
431,16.740,1.5940,-0.0795,0
432,16.772,1.4620,-0.0848,0
433,16.806,1.4600,-0.0900,0
434,16.839,1.4940,-0.0762,0
435,16.875,1.5540,-0.0661,0
436,16.908,1.5180,-0.0688,0
437,16.941,1.5000,-0.0602,0
438,16.974,1.4960,-0.0533,0
439,17.007,1.4620,-0.0617,0
440,17.040,1.4880,-0.0596,0
441,17.073,1.4940,-0.0511,0
442,17.106,1.4500,-0.0573,0
443,17.139,1.4480,-0.0626,0
444,17.172,1.4200,-0.0620,0
445,17.208,1.4920,-0.0592,0
446,17.242,1.4580,-0.0643,0
447,17.276,1.5940,-0.0478,0
448,17.309,1.6140,-0.0315,0
449,17.342,1.6260,-0.0212,0
450,17.376,1.3340,-0.0370,0
451,17.409,0.3640,-0.1441,0
452,17.443,1.5460,-0.1326,0
453,17.477,1.8260,-0.0961,0
454,17.510,1.8160,-0.0426,0
455,17.546,2.0200,0.0156,0
456,17.580,2.0180,0.0526,0
457,17.613,2.0040,0.1021,0
458,17.646,1.9180,0.1391,0
459,17.678,1.8180,0.1435,0
460,17.711,1.8580,0.1588,0
461,17.745,1.8580,0.1829,0
462,17.778,1.7780,0.1829,0
463,17.811,1.7800,0.1803,0
464,17.844,1.8060,0.1927,0
465,17.880,1.9100,0.2084,0
466,17.913,1.9020,0.2133,0
467,17.947,1.9240,0.2294,0
468,17.980,1.8920,0.2410,0
469,18.013,1.9160,0.2436,0
470,18.047,1.8640,0.2447,0
471,18.080,1.9040,0.2553,0
472,18.113,1.7980,0.2457,0
473,18.146,1.8940,0.2454,0
474,18.179,1.8960,0.2518,0
475,18.216,1.8500,0.2499,0
476,18.249,0.8200,0.1419,0
477,18.283,1.5400,0.1185,0
478,18.316,1.9500,0.1336,0
479,18.348,2.0180,0.1625,0
480,18.381,2.0020,0.1886,0
481,18.414,1.9880,0.2008,0
482,18.446,2.0500,0.2201,0
483,18.479,2.0700,0.2452,0
484,18.512,1.9300,0.2473,0
485,18.549,1.8460,0.2377,0
486,18.583,1.8260,0.2321,0
487,18.616,1.8180,0.2243,0
488,18.650,1.7240,0.2038,0
489,18.685,1.6340,0.1798,0
490,18.719,1.5980,0.1553,0
491,18.753,1.5300,0.1224,0
492,18.787,1.5120,0.0929,0
493,18.821,1.4420,0.0621,0
494,18.856,1.4440,0.0319,0
495,18.892,1.6580,0.0253,0
496,18.927,1.7380,0.0313,0
497,18.961,1.7740,0.0407,0
498,18.994,1.7540,0.0439,0
499,19.028,1.8460,0.0570,0
500,19.062,1.8520,0.0712,0
501,19.096,1.9480,0.0913,0
502,19.130,0.6940,-0.0146,0
503,19.163,1.4920,-0.0308,0
504,19.196,2.0620,0.0023,0
505,19.234,1.7900,0.0202,0
506,19.268,1.7980,0.0400,0
507,19.302,1.6940,0.0289,0
508,19.336,1.6640,0.0236,0
509,19.371,1.5800,0.0216,0
510,19.405,1.3560,-0.0158,0
511,19.439,1.4360,-0.0443,0
512,19.473,1.4740,-0.0532,0
513,19.507,1.5080,-0.0610,0
514,19.541,1.6280,-0.0648,0
515,19.578,1.8820,-0.0341,0
516,19.612,1.9100,0.0003,0
517,19.645,1.9200,0.0234,0
518,19.679,1.8940,0.0421,0
519,19.713,1.9160,0.0676,0
520,19.746,1.9160,0.0848,0
521,19.779,1.9200,0.0973,0
522,19.812,1.9280,0.1152,0
523,19.847,1.8060,0.1179,0
524,19.880,1.8200,0.1159,0
525,19.917,1.7360,0.1086,0
526,19.951,1.6900,0.1006,0
527,19.985,1.6100,0.0800,0
528,20.020,0.0700,-0.0895,0
529,20.055,1.3300,-0.1157,0
530,20.089,1.6140,-0.1212,0
531,20.124,1.7040,-0.0976,0
532,20.158,1.7320,-0.0728,0
533,20.192,1.8340,-0.0579,0
534,20.228,1.9680,-0.0219,0
535,20.264,1.9320,0.0176,0
536,20.298,1.8260,0.0278,0
537,20.332,1.8160,0.0334,0
538,20.365,1.8020,0.0500,0
539,20.399,1.8160,0.0603,0
540,20.432,1.7620,0.0553,0
541,20.466,1.7620,0.0610,0
542,20.500,1.7060,0.0617,0
543,20.534,1.5800,0.0397,0
544,20.570,1.5060,0.0168,0
545,20.608,1.5940,0.0107,0
546,20.643,1.7600,0.0144,0
547,20.677,1.7740,0.0196,0
548,20.711,1.7940,0.0338,0
549,20.746,1.7940,0.0414,0
550,20.779,1.8280,0.0475,0
551,20.813,1.8440,0.0611,0
552,20.847,1.8480,0.0733,0
553,20.881,1.5120,0.0451,0
554,20.915,0.7420,-0.0528,0
555,20.953,1.5560,-0.0610,0
556,20.987,1.5880,-0.0712,0
557,21.021,1.6180,-0.0640,0
558,21.055,1.5760,-0.0633,0
559,21.089,1.6180,-0.0691,0
560,21.124,1.7160,-0.0570,0
561,21.158,1.6980,-0.0420,0
562,21.192,1.6840,-0.0395,0
563,21.227,1.8460,-0.0214,0
564,21.262,1.8900,0.0078,0
565,21.300,1.6440,0.0060,0
566,21.335,1.4480,-0.0211,0
567,21.371,1.4140,-0.0445,0
568,21.405,1.4660,-0.0585,0
569,21.441,1.5820,-0.0638,0
570,21.476,1.7080,-0.0538,0
571,21.515,1.7300,-0.0385,0
572,21.548,1.7460,-0.0266,0
573,21.582,1.6920,-0.0230,0
574,21.617,1.6200,-0.0229,0
575,21.653,1.3120,-0.0545,0
576,21.688,1.3540,-0.0824,0
577,21.722,1.4580,-0.0956,0
578,21.757,1.6340,-0.0859,0
579,21.792,0.5560,-0.1845,0
580,21.827,1.4360,-0.1890,0
581,21.863,2.0400,-0.1371,0
582,21.898,1.9920,-0.0795,0
583,21.934,1.7680,-0.0512,0
584,21.970,1.6040,-0.0575,0
585,22.007,1.7720,-0.0396,0
586,22.042,1.8780,-0.0045,0
587,22.077,1.8780,0.0169,0
588,22.114,1.8980,0.0364,0
589,22.148,1.8420,0.0574,0
590,22.182,1.7800,0.0655,0
591,22.218,1.6020,0.0484,0
592,22.253,1.4980,0.0296,0
593,22.289,1.5460,0.0179,0
594,22.324,1.6440,0.0101,0
595,22.362,1.8940,0.0325,0
596,22.397,1.8000,0.0481,0
597,22.433,1.6100,0.0380,0
598,22.469,1.4760,0.0128,0
599,22.505,1.4960,-0.0033,0
600,22.540,1.5220,-0.0158,0
601,22.575,1.7020,-0.0122,0
602,22.611,1.8440,0.0083,0
603,22.645,1.9120,0.0359,0
604,22.680,1.6340,0.0297,0
605,22.718,0.5460,-0.0833,0
606,22.753,1.5320,-0.0887,0
607,22.788,1.6760,-0.0843,0
608,22.823,1.7240,-0.0604,0
609,22.858,1.8640,-0.0282,0
610,22.893,1.9960,0.0020,0
611,22.929,1.9740,0.0372,0
612,22.964,1.8020,0.0563,0
613,23.000,1.6100,0.0409,0
614,23.036,1.4640,0.0140,0
615,23.074,1.7080,0.0233,0
616,23.110,1.8380,0.0372,0
617,23.145,1.8720,0.0513,0
618,23.180,1.8300,0.0680,0
619,23.215,1.7020,0.0665,0
620,23.250,1.6700,0.0556,0
621,23.285,1.4300,0.0279,0
622,23.320,1.4280,0.0047,0
623,23.354,1.4760,-0.0193,0
624,23.389,1.5460,-0.0299,0
625,23.427,1.7300,-0.0152,0
626,23.462,1.8880,0.0076,0
627,23.498,1.6980,0.0094,0
628,23.534,1.5300,0.0002,0
629,23.569,0.1060,-0.1533,0
630,23.605,1.3800,-0.1712,0
631,23.640,1.7580,-0.1496,0
632,23.675,1.9060,-0.0954,0
633,23.710,1.9760,-0.0486,0
634,23.745,2.0120,-0.0156,0
635,23.782,1.8520,0.0129,0
636,23.817,1.5600,0.0112,0
637,23.852,1.4720,-0.0160,0
638,23.887,1.5180,-0.0302,0
639,23.921,1.5580,-0.0271,0
640,23.956,1.6800,-0.0234,0
641,23.991,1.7040,-0.0210,0
642,24.026,1.8160,0.0053,0
643,24.060,1.8680,0.0293,0
644,24.095,1.8860,0.0441,0
645,24.135,1.5080,0.0291,0
646,24.170,1.4660,0.0127,0
647,24.209,1.7840,0.0169,0
648,24.244,1.8460,0.0336,0
649,24.280,1.6720,0.0416,0
650,24.316,1.5560,0.0249,0
651,24.352,1.4980,0.0003,0
652,24.387,1.4960,-0.0094,0
653,24.423,0.5800,-0.1116,0
654,24.457,1.4820,-0.1247,0
655,24.495,2.0020,-0.0807,0
656,24.530,1.9800,-0.0258,0
657,24.564,1.8340,-0.0013,0
658,24.598,1.8060,0.0063,0
659,24.633,1.6780,0.0142,0
660,24.669,1.5500,0.0101,0
661,24.703,1.4420,-0.0191,0
662,24.739,1.5420,-0.0290,0
663,24.774,1.6920,-0.0138,0
664,24.809,1.8200,0.0028,0
665,24.847,1.7820,0.0127,0
666,24.883,1.5560,0.0095,0
667,24.919,1.4340,-0.0115,0
668,24.954,1.4780,-0.0337,0
669,24.990,1.6240,-0.0297,0
670,25.025,1.8240,-0.0038,0
671,25.060,1.7660,0.0054,0
672,25.094,1.8220,0.0230,0
673,25.129,1.7760,0.0384,0
674,25.163,1.8220,0.0506,0
675,25.203,1.4220,0.0212,0
676,25.239,1.5660,0.0143,0
677,25.274,0.1580,-0.1353,0
678,25.310,1.6380,-0.1261,0
679,25.346,1.9820,-0.0856,0
680,25.382,1.8180,-0.0459,0
681,25.417,1.6160,-0.0381,0
682,25.453,1.6340,-0.0450,0
683,25.488,1.7400,-0.0266,0
684,25.523,1.7280,-0.0050,0
685,25.562,1.9420,0.0194,0
686,25.597,1.8100,0.0319,0
687,25.633,1.5920,0.0348,0
688,25.669,1.5120,0.0163,0
689,25.704,1.5540,-0.0027,0
690,25.740,1.6860,0.0088,0
691,25.775,1.9220,0.0399,0
692,25.811,1.9160,0.0561,0
693,25.845,1.8760,0.0768,0
694,25.880,1.6980,0.0806,0
695,25.919,1.3020,0.0329,0
696,25.957,1.4960,0.0110,0
697,25.993,1.8500,0.0335,0
698,26.029,1.8360,0.0494,0
699,26.065,1.7720,0.0555,0
700,26.100,0.1020,-0.1001,0
701,26.136,1.1600,-0.1394,0
702,26.172,1.7560,-0.1271,0
703,26.210,2.1460,-0.0536,0
704,26.246,2.0500,0.0052,0
705,26.285,1.6420,-0.0032,0
706,26.321,1.7400,0.0057,0
707,26.356,1.8060,0.0308,0
708,26.391,1.8360,0.0445,0
709,26.426,1.9140,0.0618,0
710,26.460,1.9480,0.0924,0
711,26.495,1.9040,0.1107,0
712,26.530,1.7480,0.1031,0
713,26.565,1.6200,0.0913,0
714,26.600,1.5360,0.0736,0
715,26.637,1.4760,0.0429,0
716,26.673,1.6580,0.0369,0
717,26.709,1.8560,0.0571,0
718,26.745,1.8680,0.0717,0
719,26.781,1.5920,0.0563,0
720,26.816,1.4680,0.0342,0
721,26.852,1.4580,0.0095,0
722,26.887,1.4700,-0.0134,0
723,26.922,1.5440,-0.0212,0
724,26.957,0.1960,-0.1608,0
725,26.995,1.6700,-0.1468,0
726,27.031,1.8920,-0.1157,0
727,27.066,1.7220,-0.0811,0
728,27.102,1.6180,-0.0699,0
729,27.137,1.7220,-0.0674,0
730,27.173,1.8400,-0.0355,0
731,27.211,1.9180,0.0072,0
732,27.247,1.7460,0.0090,0
733,27.283,1.5300,-0.0053,0
734,27.319,1.5200,-0.0072,0
735,27.357,1.7540,0.0004,0
736,27.392,1.8960,0.0190,0
737,27.427,1.9220,0.0542,0
738,27.464,1.6820,0.0552,0
739,27.500,1.5360,0.0304,0
740,27.535,1.4640,0.0110,0
741,27.570,1.4700,-0.0026,0
742,27.605,1.6000,-0.0129,0
743,27.640,1.6820,-0.0097,0
744,27.675,1.7940,0.0131,0
745,27.713,1.7760,0.0235,0
746,27.748,1.6260,0.0155,0
747,27.783,1.0720,-0.0379,0
748,27.818,0.8160,-0.1157,0
749,27.854,1.5980,-0.1174,0
750,27.890,1.8420,-0.0838,0
751,27.926,1.9380,-0.0338,0
752,27.962,1.9280,-0.0042,0
753,27.998,1.6920,-0.0021,0
754,28.034,1.5040,-0.0068,0
755,28.073,1.6720,-0.0034,0
756,28.109,1.8420,0.0095,0
757,28.145,1.8480,0.0356,0
758,28.181,1.6080,0.0345,0
759,28.218,1.4020,0.0001,0
760,28.254,1.5260,-0.0127,0
761,28.289,1.6240,-0.0073,0
762,28.324,1.7820,0.0055,0
763,28.358,1.8040,0.0183,0
764,28.393,1.8580,0.0435,0
765,28.430,1.6420,0.0404,0
766,28.465,1.4120,0.0094,0
767,28.502,1.4400,-0.0109,0
768,28.537,1.5060,-0.0219,0
769,28.573,1.7320,-0.0131,0
770,28.608,0.9060,-0.0831,0
771,28.645,1.6400,-0.0717,0
772,28.681,1.7540,-0.0594,0
773,28.717,1.6340,-0.0485,0
774,28.752,1.5660,-0.0433,0
775,28.790,1.9040,-0.0187,0
776,28.825,2.0020,0.0188,0
777,28.861,1.9360,0.0572,0
778,28.897,1.6360,0.0497,0
779,28.933,1.5280,0.0272,0
780,28.969,1.5160,0.0166,0
781,29.004,1.6120,0.0142,0
782,29.039,1.6840,0.0112,0
783,29.074,1.8760,0.0354,0
784,29.108,1.8400,0.0568,0
785,29.146,1.7840,0.0624,0
786,29.180,1.6960,0.0593,0
787,29.219,1.4700,0.0399,0
788,29.255,1.7020,0.0401,0
789,29.292,1.7280,0.0393,0
790,29.328,1.8160,0.0563,0
791,29.363,1.6200,0.0502,0
792,29.399,1.5100,0.0270,0
793,29.434,0.0340,-0.1347,0
794,29.469,1.1280,-0.1711,0
795,29.507,1.9620,-0.1344,0
796,29.542,2.0780,-0.0684,0
797,29.577,2.0440,-0.0061,0
798,29.611,2.0100,0.0225,0
799,29.646,1.9280,0.0461,0
800,29.681,1.7380,0.0647,0
801,29.719,1.5160,0.0423,0
802,29.754,1.5840,0.0217,0
803,29.788,1.7080,0.0333,0
804,29.823,1.8180,0.0517,0
805,29.860,1.9060,0.0634,0
806,29.895,1.7840,0.0730,0
807,29.930,1.6960,0.0782,0
808,29.965,1.5940,0.0578,0
809,30.000,1.4840,0.0315,0
810,30.035,1.4820,0.0186,0
811,30.069,1.5280,0.0021,0
812,30.104,1.5620,-0.0129,0
813,30.138,1.6880,-0.0024,0
814,30.173,1.7620,0.0116,0
815,30.213,1.6860,0.0091,0
816,30.249,1.0300,-0.0503,0
817,30.285,0.8620,-0.1193,0
818,30.321,1.8220,-0.0989,0
819,30.357,2.0160,-0.0525,0
820,30.393,2.0740,0.0104,0
821,30.428,1.9760,0.0405,0
822,30.464,1.8120,0.0458,0
823,30.500,1.6380,0.0491,0
824,30.535,1.5240,0.0339,0
825,30.574,1.9180,0.0469,0
826,30.609,1.9160,0.0714,0
827,30.644,1.8640,0.0948,0
828,30.678,1.7920,0.0917,0
829,30.713,1.6660,0.0792,0
830,30.748,1.5400,0.0677,0
831,30.782,1.4760,0.0401,0
832,30.817,1.4480,0.0071,0
833,30.852,1.4440,-0.0096,0
834,30.886,1.5080,-0.0206,0
835,30.924,1.8400,-0.0076,0
836,30.960,1.7080,0.0006,0
837,30.996,1.5980,0.0031,0
838,31.032,1.4960,-0.0186,0
839,31.066,1.4700,-0.0389,0
840,31.102,0.3660,-0.1542,0
841,31.136,1.3120,-0.1740,0
842,31.171,1.7700,-0.1570,0
843,31.211,1.9360,-0.0987,0
844,31.247,1.7320,-0.0681,0
845,31.285,1.6080,-0.0757,0
846,31.320,1.7300,-0.0585,0
847,31.356,1.7560,-0.0280,0
848,31.390,1.8120,-0.0124,0
849,31.425,1.8680,0.0058,0
850,31.459,1.8980,0.0413,0
851,31.494,1.8200,0.0567,0
852,31.529,1.6580,0.0443,0
853,31.564,1.5480,0.0345,0
854,31.599,1.4460,0.0159,0
855,31.637,1.6200,0.0043,0
856,31.673,1.8360,0.0218,0
857,31.709,1.8680,0.0498,0
858,31.745,1.7680,0.0553,0
859,31.780,1.4600,0.0267,0
860,31.816,1.4980,0.0136,0
861,31.851,1.4800,-0.0048,0
862,31.886,1.5920,-0.0143,0
863,31.921,0.7120,-0.1017,0
864,31.956,1.6780,-0.0859,0
865,31.994,1.9660,-0.0544,0
866,32.029,1.8340,-0.0212,0
867,32.065,1.6360,-0.0098,0
868,32.100,1.6040,-0.0221,0
869,32.136,1.6980,-0.0157,0
870,32.172,1.8560,0.0181,0
871,32.209,1.8620,0.0352,0
872,32.246,1.6700,0.0294,0
873,32.281,1.5340,0.0234,0
874,32.317,1.4840,0.0055,0
875,32.355,1.7600,0.0084,0
876,32.391,1.8940,0.0363,0
877,32.428,1.7760,0.0526,0
878,32.464,1.5840,0.0360,0
879,32.499,1.4840,0.0139,0
880,32.535,1.5440,0.0076,0
881,32.571,1.6820,0.0083,0
882,32.605,1.7060,0.0098,0
883,32.640,1.8100,0.0301,0
884,32.675,1.8400,0.0476,0
885,32.713,1.6380,0.0382,0
886,32.749,0.7400,-0.0526,0
887,32.784,1.1360,-0.0973,0
888,32.820,1.7860,-0.0831,0
889,32.856,2.0080,-0.0337,0
890,32.893,1.9840,0.0150,0
891,32.928,1.8740,0.0313,0
892,32.964,1.7300,0.0335,0
893,32.999,1.5580,0.0302,0
894,33.035,1.4880,0.0098,0
895,33.073,1.8420,0.0203,0
896,33.109,1.8500,0.0439,0
897,33.145,1.7360,0.0544,0
898,33.180,1.5800,0.0352,0
899,33.219,1.5220,0.0177,0
900,33.254,1.6500,0.0219,0
901,33.290,1.8520,0.0363,0
902,33.326,1.7800,0.0427,0
903,33.362,1.6400,0.0438,0
904,33.397,1.4860,0.0224,0
905,33.435,1.4720,-0.0039,0
906,33.471,1.5600,-0.0099,0
907,33.505,1.7580,0.0047,0
908,33.540,1.8060,0.0157,0
909,33.575,1.8500,0.0352,0
910,33.610,0.3920,-0.0873,0
911,33.644,1.3380,-0.1133,0
912,33.679,1.7960,-0.0988,0
913,33.713,1.7400,-0.0666,0
914,33.749,1.6260,-0.0526,0
915,33.788,1.8760,-0.0368,0
916,33.824,2.0360,0.0080,0
917,33.860,1.9040,0.0477,0
918,33.896,1.5840,0.0309,0
919,33.931,1.5080,0.0065,0
920,33.966,1.4860,-0.0009,0
921,34.001,1.5360,-0.0110,0
922,34.036,1.5760,-0.0257,0
923,34.070,1.6920,-0.0133,0
924,34.105,1.8220,0.0117,0
925,34.143,1.8320,0.0229,0
926,34.178,1.7340,0.0301,0
927,34.212,1.6440,0.0340,0
928,34.248,1.4540,0.0074,0
929,34.284,1.4540,-0.0166,0
930,34.320,1.6180,-0.0130,0
931,34.356,1.8760,0.0115,0
932,34.392,1.8480,0.0271,0
933,34.428,1.6520,0.0296,0
934,34.464,1.3520,-0.0004,0
935,34.503,0.2780,-0.1404,0
936,34.538,1.6880,-0.1243,0
937,34.575,1.9600,-0.0823,0
938,34.611,1.8280,-0.0453,0
939,34.647,1.6540,-0.0357,0
940,34.682,1.5600,-0.0461,0
941,34.718,1.6240,-0.0397,0
942,34.753,1.6960,-0.0242,0
943,34.788,1.8160,-0.0078,0
944,34.824,1.9440,0.0232,0
945,34.862,1.6460,0.0286,0
946,34.898,1.5020,0.0117,0
947,34.934,1.5420,-0.0048,0
948,34.970,1.7080,0.0057,0
949,35.007,1.8900,0.0334,0
950,35.042,1.8560,0.0483,0
951,35.078,1.6820,0.0489,0
952,35.114,1.5400,0.0375,0
953,35.149,1.5040,0.0163,0
954,35.184,1.4320,-0.0083,0
955,35.222,1.8380,0.0153,0
956,35.257,1.8880,0.0372,0
957,35.294,1.7180,0.0411,0
958,35.329,1.3240,0.0084,0
959,35.365,0.3060,-0.1256,0
960,35.401,1.5480,-0.1279,0
961,35.437,1.8920,-0.0935,0
962,35.473,2.0180,-0.0337,0
963,35.509,1.9620,0.0051,0
964,35.545,1.8000,0.0143,0
965,35.583,1.5680,0.0116,0
966,35.619,1.5960,0.0110,0
967,35.655,1.8040,0.0184,0
968,35.691,1.8620,0.0397,0
969,35.727,1.8140,0.0617,0
970,35.762,1.6220,0.0496,0
971,35.798,1.4720,0.0233,0
972,35.833,1.5000,0.0122,0
973,35.868,1.5920,0.0054,0
974,35.903,1.7120,0.0067,0
975,35.940,1.9260,0.0381,0
976,35.976,1.8100,0.0547,0
977,36.011,1.5420,0.0361,0
978,36.047,1.3920,0.0067,0
979,36.083,1.4400,-0.0124,0
980,36.119,1.6220,-0.0156,0
981,36.155,1.8380,0.0044,0
982,36.191,1.6560,0.0094,0
983,36.227,0.4380,-0.1085,0
984,36.263,1.5520,-0.1116,0
985,36.302,1.7460,-0.0957,0
986,36.337,1.9060,-0.0465,0
987,36.373,1.9920,-0.0031,0
988,36.410,1.9220,0.0178,0
989,36.445,1.7300,0.0317,0
990,36.480,1.4820,0.0195,0
991,36.515,1.4060,-0.0142,0
992,36.550,1.4760,-0.0305,0
993,36.585,1.5380,-0.0291,0
994,36.620,1.6680,-0.0258,0
995,36.671,1.7560,-0.0156,0
996,36.707,1.8480,0.0145,0
997,36.743,1.7220,0.0239,0
998,36.778,1.5920,0.0118,0
999,36.814,1.4420,-0.0064,0
1000,36.849,1.4220,-0.0235,0
1001,36.884,1.4800,-0.0413,0
1002,36.918,1.5480,-0.0462,0
1003,36.953,1.5840,-0.0408,0
1004,36.987,1.7740,-0.0239,0
1005,37.025,1.8140,-0.0057,0
1006,37.066,1.4560,-0.0165,0
1007,37.098,0.0000,-0.1736,0
1008,37.133,1.1360,-0.2128,0
1009,37.168,1.7060,-0.1899,0
1010,37.203,1.9300,-0.1244,0
1011,37.239,2.0740,-0.0607,0
1012,37.274,2.0760,-0.0174,0
1013,37.310,1.9000,0.0203,0
1014,37.346,1.6220,0.0279,0
1015,37.385,1.6820,0.0218,0
1016,37.422,1.9440,0.0491,0
1017,37.457,1.9160,0.0843,0
1018,37.493,1.8040,0.0921,0
1019,37.529,1.6120,0.0738,0
1020,37.563,1.5220,0.0617,0
1021,37.599,1.5520,0.0496,0
1022,37.633,1.5200,0.0258,0
1023,37.668,1.6300,0.0252,0
1024,37.703,1.8140,0.0461,0
1025,37.742,1.7760,0.0514,0
1026,37.778,1.6320,0.0460,0
1027,37.815,1.4580,0.0292,0
1028,37.851,1.4780,0.0077,0
1029,37.887,1.8620,0.0252,0
1030,37.929,1.5540,0.0201,0
1031,37.962,1.5000,0.0084,0
1032,37.998,0.0000,-0.1597,0
1033,38.033,1.3540,-0.1720,0
1034,38.068,1.7760,-0.1434,0
1035,38.106,2.0120,-0.0819,0
1036,38.141,1.9800,-0.0314,0
1037,38.177,1.8020,-0.0132,0
1038,38.213,1.5860,-0.0132,0
1039,38.250,1.5200,-0.0169,0
1040,38.287,1.7320,-0.0078,0
1041,38.322,1.9220,0.0213,0
1042,38.358,1.8080,0.0446,0
1043,38.394,1.6480,0.0434,0
1044,38.430,1.5020,0.0219,0
1045,38.469,1.7100,0.0303,0
1046,38.505,1.9120,0.0580,0
1047,38.542,1.8660,0.0738,0
1048,38.578,1.5820,0.0633,0
1049,38.613,1.4900,0.0451,0
1050,38.648,1.3440,0.0084,0
1051,38.683,1.4620,-0.0103,0
1052,38.718,1.4620,-0.0233,0
1053,38.753,1.7480,-0.0096,0
1054,38.788,1.8480,0.0118,0
1055,38.826,1.8380,0.0356,0
1056,38.861,0.3480,-0.0916,0
1057,38.898,1.3520,-0.1140,0
1058,38.934,1.6880,-0.1047,0
1059,38.971,2.0140,-0.0434,0
1060,39.007,2.0340,0.0083,0
1061,39.043,1.8540,0.0231,0
1062,39.079,1.6340,0.0259,0
1063,39.115,1.4840,0.0165,0
1064,39.150,1.4800,-0.0067,0
1065,39.188,1.8880,0.0172,0
1066,39.224,1.9260,0.0537,0
1067,39.260,1.7320,0.0599,0
1068,39.296,1.4840,0.0343,0
1069,39.333,1.5400,0.0246,0
1070,39.369,1.7700,0.0379,0
1071,39.405,1.9600,0.0631,0
1072,39.441,1.8440,0.0801,0
1073,39.477,1.7200,0.0852,0
1074,39.512,1.5220,0.0615,0
1075,39.550,1.6540,0.0545,0
1076,39.587,1.6860,0.0571,0
1077,39.624,1.8420,0.0715,0
1078,39.659,1.7160,0.0692,0
1079,39.695,1.5660,0.0576,0
1080,39.730,0.0680,-0.1020,0
1081,39.765,1.2680,-0.1343,0
1082,39.801,1.8060,-0.1128,0
1083,39.836,2.0320,-0.0482,0
1084,39.871,2.0360,0.0042,0
1085,39.910,1.7520,0.0067,0
1086,39.946,1.6720,0.0142,0
1087,39.982,1.6320,0.0205,0
1088,40.019,1.7920,0.0268,0
1089,40.056,1.9460,0.0530,0
1090,40.091,1.8440,0.0781,0
1091,40.127,1.6280,0.0679,0
1092,40.163,1.4920,0.0394,0
1093,40.198,1.4920,0.0251,0
1094,40.235,1.7200,0.0326,0
1095,40.274,1.8240,0.0414,0
1096,40.310,1.6040,0.0367,0
1097,40.346,1.5160,0.0260,0
1098,40.381,1.4300,-0.0038,0
1099,40.416,1.5140,-0.0180,0
1100,40.451,1.5600,-0.0180,0
1101,40.487,1.8000,-0.0018,0
1102,40.522,1.8880,0.0195,0
1103,40.557,1.7980,0.0396,0
1104,40.592,0.6280,-0.0614,0
1105,40.631,1.0220,-0.1229,0
1106,40.668,1.7980,-0.1008,0
1107,40.704,1.9840,-0.0467,0
1108,40.741,1.9840,-0.0004,0
1109,40.777,1.7880,0.0092,0
1110,40.812,1.6860,0.0156,0
1111,40.847,1.5540,0.0122,0
1112,40.882,1.5080,-0.0061,0
1113,40.917,1.5940,-0.0125,0
1114,40.952,1.7720,0.0081,0
1115,40.991,1.7600,0.0201,0
1116,41.027,1.6680,0.0183,0
1117,41.063,1.5140,0.0077,0
1118,41.100,1.5180,-0.0033,0
1119,41.136,1.7800,0.0070,0
1120,41.172,1.9240,0.0361,0
1121,41.209,1.7840,0.0526,0
1122,41.245,1.5560,0.0376,0
1123,41.281,1.5080,0.0175,0
1124,41.316,1.4520,-0.0004,0
1125,41.354,1.8040,0.0164,0
1126,41.390,1.8680,0.0343,0
1127,41.426,1.7300,0.0437,0
1128,41.462,0.0320,-0.1157,0
1129,41.500,1.4120,-0.1331,0
1130,41.536,1.9660,-0.0977,0
1131,41.572,1.9980,-0.0349,0
1132,41.608,1.9140,0.0045,0
1133,41.643,1.6820,-0.0042,0
1134,41.678,1.5300,-0.0092,0
1135,41.716,1.4700,-0.0137,0
1136,41.751,1.5460,-0.0311,0
1137,41.787,1.7040,-0.0241,0
1138,41.822,1.8020,0.0078,0
1139,41.859,1.5980,0.0021,0
1140,41.895,1.4180,-0.0266,0
1141,41.932,1.5520,-0.0253,0
1142,41.969,1.7780,-0.0056,0
1143,42.004,1.9600,0.0215,0
1144,42.040,1.9460,0.0549,0
1145,42.080,1.5560,0.0486,0
1146,42.115,1.5520,0.0299,0
1147,42.149,1.5720,0.0166,0
1148,42.185,1.7760,0.0355,0
1149,42.221,1.9100,0.0586,0
1150,42.256,1.8940,0.0740,0
1151,42.293,0.1440,-0.0750,0
1152,42.329,1.4260,-0.0883,0
1153,42.366,1.8140,-0.0785,0
1154,42.402,1.9760,-0.0236,0
1155,42.441,1.9380,0.0226,0
1156,42.477,1.7780,0.0209,0
1157,42.512,1.6460,0.0200,0
1158,42.547,1.5500,0.0239,0
1159,42.582,1.5820,0.0084,0
1160,42.619,1.8880,0.0240,0
1161,42.654,1.9620,0.0665,0
1162,42.689,1.8880,0.0878,0
1163,42.724,1.7200,0.0761,0
1164,42.759,1.6520,0.0739,0
1165,42.798,1.4120,0.0501,0
1166,42.834,1.6320,0.0347,0
1167,42.870,1.8240,0.0459,0
1168,42.906,1.8760,0.0743,0
1169,42.942,1.6620,0.0668,0
1170,42.979,1.3540,0.0242,0
1171,43.016,1.5060,0.0121,0
1172,43.052,1.7140,0.0182,0
1173,43.088,1.7580,0.0225,0
1174,43.123,0.6700,-0.0719,0
1175,43.163,1.1060,-0.1153,0
1176,43.201,1.8980,-0.0907,0
1177,43.238,2.1040,-0.0305,0
1178,43.274,1.9400,0.0176,0
1179,43.310,1.8420,0.0290,0
1180,43.345,1.7000,0.0258,0
1181,43.380,1.6220,0.0329,0
1182,43.415,1.5440,0.0188,0
1183,43.450,1.6680,0.0091,0
1184,43.485,1.8020,0.0301,0
1185,43.524,1.7760,0.0465,0
1186,43.560,1.5780,0.0275,0
1187,43.597,1.5000,0.0100,0
1188,43.633,1.5880,0.0095,0
1189,43.669,1.8080,0.0202,0
1190,43.705,1.9100,0.0414,0
1191,43.741,1.7940,0.0595,0
1192,43.776,1.6440,0.0532,0
1193,43.813,1.4360,0.0202,0
1194,43.848,1.4080,-0.0030,0
1195,43.886,1.8480,0.0187,0
1196,43.922,1.8220,0.0291,0
1197,43.959,1.7100,0.0359,0
1198,43.995,0.0840,-0.1177,0
1199,44.032,1.0380,-0.1731,0
1200,44.069,1.9380,-0.1380,0
1201,44.105,2.0240,-0.0714,0
1202,44.141,1.8920,-0.0283,0
1203,44.176,1.7120,-0.0300,0
1204,44.212,1.6740,-0.0215,0
1205,44.251,1.8380,0.0123,0
1206,44.288,1.8400,0.0240,0
1207,44.323,1.8260,0.0361,0
1208,44.359,1.6480,0.0438,0
1209,44.394,1.4380,0.0179,0
1210,44.429,1.4160,-0.0156,0
1211,44.464,1.4700,-0.0260,0
1212,44.499,1.6700,-0.0161,0
1213,44.535,1.8600,0.0003,0
1214,44.570,1.8620,0.0244,0
1215,44.609,1.6020,0.0263,0
1216,44.646,1.5440,0.0093,0
1217,44.683,1.5380,-0.0069,0
1218,44.719,1.7760,0.0136,0
1219,44.755,1.7900,0.0275,0
1220,44.790,1.7980,0.0357,0
1221,44.826,1.5260,0.0242,0
1222,44.861,0.0000,-0.1367,0
1223,44.896,1.3600,-0.1587,0
1224,44.931,1.7140,-0.1446,0
1225,44.970,1.9480,-0.0816,0
1226,45.006,2.0380,-0.0278,0
1227,45.045,1.6280,-0.0363,0
1228,45.081,1.7140,-0.0167,0
1229,45.118,1.8580,0.0145,0
1230,45.154,1.9440,0.0351,0
1231,45.190,1.8220,0.0520,0
1232,45.228,1.5420,0.0474,0
1233,45.264,1.5940,0.0318,0
1234,45.301,1.8300,0.0411,0
1235,45.341,1.7820,0.0606,0
1236,45.377,1.5420,0.0469,0
1237,45.414,1.6280,0.0317,0
1238,45.451,1.6660,0.0332,0
1239,45.487,1.8240,0.0546,0
1240,45.522,1.7660,0.0556,0
1241,45.557,1.6820,0.0524,0
1242,45.592,1.4420,0.0335,0
1243,45.628,1.3640,-0.0006,0
1244,45.663,0.3960,-0.1292,0
1245,45.701,1.5440,-0.1226,0
1246,45.737,1.9360,-0.0849,0
1247,45.774,1.8420,-0.0511,0
1248,45.810,1.5680,-0.0441,0
1249,45.859,1.7460,-0.0331,0
1250,45.895,1.6920,-0.0268,0
1251,45.930,1.5680,-0.0214,0
1252,45.966,1.7980,-0.0036,0
1253,46.001,1.9020,0.0167,0
1254,46.037,2.0200,0.0605,0
1255,46.076,1.6680,0.0625,0
1256,46.113,1.5680,0.0426,0
1257,46.149,1.7380,0.0467,0
1258,46.185,1.8660,0.0699,0
1259,46.223,1.7420,0.0713,0
1260,46.264,1.4100,0.0382,0
1261,46.298,1.4180,0.0147,0
1262,46.334,1.6280,0.0099,0
1263,46.371,1.7360,0.0152,0
1264,46.409,1.5320,0.0069,0
1265,46.448,1.5880,0.0023,0
1266,46.503,0.3400,-0.1306,0
1267,46.543,1.5900,-0.1220,0
1268,46.591,1.7960,-0.0980,0
1269,46.632,1.8080,-0.0633,0
1270,46.670,2.0820,-0.0072,0
1271,46.703,2.1200,0.0369,0
1272,46.743,1.6640,0.0404,0
1273,46.827,1.5460,0.0336,0
1274,46.892,1.6120,0.0197,0
1275,46.931,1.5840,0.0106,0
1276,46.967,1.7500,0.0288,0
1277,47.004,1.8780,0.0464,0
1278,47.039,1.7540,0.0490,0
1279,47.074,1.5580,0.0431,0
1280,47.110,1.3980,0.0144,0
1281,47.145,1.3460,-0.0238,0
1282,47.181,1.4520,-0.0372,0
1283,47.217,1.7780,-0.0160,0
1284,47.254,1.8500,0.0023,0
1285,47.295,1.2820,-0.0304,0
1286,47.332,0.1540,-0.1680,0
1287,47.368,1.8760,-0.1363,0
1288,47.404,2.1020,-0.0836,0
1289,47.440,1.9120,-0.0253,0
1290,47.475,1.6700,-0.0158,0
1291,47.511,1.6200,-0.0315,0
1292,47.548,1.8440,0.0019,0
1293,47.584,1.9020,0.0398,0
1294,47.621,1.8600,0.0469,0
1295,47.660,1.5100,0.0298,0
1296,47.697,1.5440,0.0300,0
1297,47.734,1.7560,0.0307,0
1298,47.770,1.8260,0.0400,0
1299,47.806,1.6760,0.0528,0
1300,47.844,1.4040,0.0244,0
1301,47.880,1.4060,-0.0125,0
1302,47.916,1.6600,-0.0041,0
1303,47.952,1.8120,0.0205,0
1304,47.988,1.7860,0.0266,0
1305,48.028,1.3740,-0.0015,0
1306,48.064,1.5280,-0.0050,0
